5.0023	50.85
5.0125	49.44
5.0226	49.46
5.0328	48.15
5.043	48.13
5.0531	46.85
5.0633	46.62
5.0735	46.07
5.0836	46.58
5.0938	44.01
5.1039	44.07
5.1141	44.07
5.1243	42.08
5.1344	44.05
5.1446	41.55
5.1548	41.45
5.1649	41.63
5.1751	40.31
5.1853	40.26
5.1954	40.63
5.2056	38.30
5.2158	38.48
5.2259	39.09
5.2361	38.26
5.2462	36.27
5.2564	36.43
5.2666	36.16
5.2767	36.37
5.2869	35.48
5.2971	35.68
5.3072	35.43
5.3174	34.91
5.3276	34.40
5.3377	34.08
5.3479	33.54
5.3581	33.65
5.3682	33.68
5.3784	33.09
5.3886	32.38
5.3987	31.91
5.4089	32.02
5.419	31.37
5.4292	30.90
5.4394	30.32
5.4495	31.16
5.4597	30.24
5.4699	29.90
5.48	30.09
5.4902	29.48
5.5004	29.92
5.5105	29.43
5.5207	28.43
5.5309	28.20
5.541	28.02
5.5512	27.90
5.5613	27.65
5.5715	27.84
5.5817	27.57
5.5918	27.38
5.602	27.80
5.6122	25.55
5.6223	27.11
5.6325	25.93
5.6427	25.45
5.6528	26.34
5.663	25.68
5.6732	25.90
5.6833	25.70
5.6935	25.65
5.7036	25.68
5.7138	24.97
5.724	25.34
5.7341	24.66
5.7443	24.30
5.7545	25.21
5.7646	23.82
5.7748	24.84
5.785	25.48
5.7951	24.93
5.8053	25.05
5.8155	24.59
5.8256	25.83
5.8358	24.11
5.846	24.92
5.8561	23.83
5.8663	24.71
5.8764	24.05
5.8866	23.16
5.8968	24.14
5.9069	24.35
5.9171	23.68
5.9273	23.81
5.9374	23.98
5.9476	24.79
5.9578	23.59
5.9679	23.95
5.9781	23.43
5.9883	23.73
5.9984	23.96
6.0086	23.60
6.0187	23.41
6.0289	23.25
6.0391	23.54
6.0492	23.79
6.0594	23.55
6.0696	23.67
6.0797	23.54
6.0899	23.49
6.1001	23.78
6.1102	23.43
6.1204	23.30
6.1306	23.27
6.1407	23.95
6.1509	22.48
6.1611	23.28
6.1712	23.31
6.1814	23.02
6.1915	23.37
6.2017	23.00
6.2119	22.69
6.222	23.25
6.2322	22.74
6.2424	23.20
6.2525	23.38
6.2627	22.68
6.2729	23.12
6.283	22.99
6.2932	22.10
6.3034	22.79
6.3135	21.96
6.3237	23.51
6.3338	23.04
6.344	22.06
6.3542	22.32
6.3643	22.34
6.3745	21.66
6.3847	22.23
6.3948	23.51
6.405	22.71
6.4152	22.62
6.4253	22.40
6.4355	22.89
6.4457	22.93
6.4558	23.21
6.466	23.37
6.4762	22.77
6.4863	23.15
6.4965	23.40
6.5066	22.84
6.5168	22.55
6.527	23.10
6.5371	22.46
6.5473	23.01
6.5575	23.58
6.5676	23.68
6.5778	22.99
6.588	23.52
6.5981	22.86
6.6083	23.83
6.6185	23.23
6.6286	22.68
6.6388	22.76
6.6489	24.25
6.6591	21.93
6.6693	23.70
6.6794	23.09
6.6896	23.21
6.6998	23.22
6.7099	22.89
6.7201	22.51
6.7303	23.02
6.7404	23.95
6.7506	23.16
6.7608	23.13
6.7709	23.45
6.7811	22.51
6.7913	23.44
6.8014	23.28
6.8116	23.37
6.8217	23.51
6.8319	23.16
6.8421	23.68
6.8522	23.41
6.8624	23.48
6.8726	23.49
6.8827	23.55
6.8929	23.96
6.9031	22.62
6.9132	23.60
6.9234	23.67
6.9336	23.63
6.9437	23.46
6.9539	23.03
6.964	23.46
6.9742	23.13
6.9844	23.80
6.9945	23.62
7.0047	24.31
7.0149	23.77
7.025	22.82
7.0352	23.93
7.0454	24.55
7.0555	23.20
7.0657	23.62
7.0759	23.21
7.086	23.88
7.0962	23.84
7.1064	24.13
7.1165	22.98
7.1267	23.36
7.1368	23.99
7.147	24.07
7.1572	24.01
7.1673	23.85
7.1775	24.07
7.1877	23.90
7.1978	24.39
7.208	23.79
7.2182	24.65
7.2283	24.55
7.2385	23.64
7.2487	24.02
7.2588	24.35
7.269	23.89
7.2791	24.11
7.2893	24.65
7.2995	24.40
7.3096	24.88
7.3198	24.90
7.33	24.02
7.3401	24.05
7.3503	24.12
7.3605	23.71
7.3706	24.74
7.3808	24.70
7.391	24.96
7.4011	25.19
7.4113	24.19
7.4215	23.45
7.4316	24.29
7.4418	24.35
7.4519	24.47
7.4621	24.63
7.4723	23.88
7.4824	24.43
7.4926	23.68
7.5028	25.14
7.5129	24.62
7.5231	24.68
7.5333	25.57
7.5434	24.26
7.5536	24.76
7.5638	25.20
7.5739	24.80
7.5841	24.47
7.5942	24.30
7.6044	24.58
7.6146	25.42
7.6247	25.45
7.6349	24.28
7.6451	24.87
7.6552	25.31
7.6654	25.45
7.6756	25.01
7.6857	25.34
7.6959	24.54
7.7061	24.60
7.7162	25.60
7.7264	25.27
7.7365	25.77
7.7467	24.91
7.7569	24.46
7.767	25.01
7.7772	25.35
7.7874	25.46
7.7975	25.00
7.8077	25.01
7.8179	24.61
7.828	25.48
7.8382	26.05
7.8484	25.49
7.8585	24.94
7.8687	25.88
7.8789	25.60
7.889	24.87
7.8992	25.20
7.9093	25.05
7.9195	25.35
7.9297	25.74
7.9398	26.48
7.95	25.94
7.9602	26.41
7.9703	25.89
7.9805	25.57
7.9907	26.16
8.0008	26.47
8.011	25.49
8.0212	26.33
8.0313	25.80
8.0415	26.12
8.0516	26.15
8.0618	25.54
8.072	25.94
8.0821	26.38
8.0923	25.61
8.1025	25.93
8.1126	26.69
8.1228	25.91
8.133	25.71
8.1431	26.18
8.1533	26.55
8.1635	26.01
8.1736	26.91
8.1838	26.16
8.194	27.05
8.2041	26.32
8.2143	26.63
8.2244	26.05
8.2346	26.77
8.2448	26.40
8.2549	26.87
8.2651	26.87
8.2753	26.43
8.2854	27.32
8.2956	26.66
8.3058	27.37
8.3159	26.56
8.3261	27.23
8.3363	25.96
8.3464	26.57
8.3566	28.00
8.3667	26.66
8.3769	27.59
8.3871	26.79
8.3972	26.50
8.4074	25.93
8.4176	26.72
8.4277	26.70
8.4379	26.48
8.4481	26.86
8.4582	27.38
8.4684	27.61
8.4786	26.89
8.4887	27.12
8.4989	27.20
8.5091	27.77
8.5192	27.77
8.5294	27.40
8.5395	27.50
8.5497	27.46
8.5599	27.21
8.57	27.51
8.5802	27.22
8.5904	27.51
8.6005	27.16
8.6107	28.41
8.6209	27.69
8.631	28.67
8.6412	27.99
8.6514	28.02
8.6615	27.35
8.6717	27.02
8.6818	27.21
8.692	28.35
8.7022	28.76
8.7123	28.36
8.7225	28.98
8.7327	27.15
8.7428	28.61
8.753	28.42
8.7632	26.96
8.7733	27.76
8.7835	28.38
8.7937	28.68
8.8038	28.60
8.814	28.10
8.8242	28.35
8.8343	28.54
8.8445	27.81
8.8546	28.79
8.8648	28.42
8.875	28.08
8.8851	28.74
8.8953	28.77
8.9055	28.88
8.9156	27.57
8.9258	28.27
8.936	28.48
8.9461	29.63
8.9563	29.03
8.9665	29.15
8.9766	28.89
8.9868	29.22
8.9969	29.03
9.0071	28.09
9.0173	28.76
9.0274	28.91
9.0376	28.50
9.0478	28.64
9.0579	29.30
9.0681	28.38
9.0783	29.18
9.0884	29.15
9.0986	28.21
9.1088	29.42
9.1189	28.60
9.1291	28.55
9.1393	29.68
9.1494	29.22
9.1596	28.79
9.1697	29.15
9.1799	29.03
9.1901	28.66
9.2002	29.40
9.2104	28.38
9.2206	28.71
9.2307	29.26
9.2409	29.65
9.2511	29.79
9.2612	29.62
9.2714	29.78
9.2816	29.32
9.2917	30.18
9.3019	30.23
9.312	29.87
9.3222	29.48
9.3324	29.84
9.3425	29.73
9.3527	29.38
9.3629	29.01
9.373	30.04
9.3832	30.08
9.3934	30.00
9.4035	29.50
9.4137	29.88
9.4239	30.76
9.434	29.62
9.4442	29.70
9.4544	30.41
9.4645	30.09
9.4747	30.84
9.4848	29.92
9.495	29.40
9.5052	29.93
9.5153	30.23
9.5255	29.82
9.5357	30.20
9.5458	30.37
9.556	30.03
9.5662	29.97
9.5763	30.07
9.5865	29.65
9.5967	30.38
9.6068	30.79
9.617	30.41
9.6271	30.26
9.6373	31.10
9.6475	30.90
9.6576	30.32
9.6678	30.57
9.678	30.38
9.6881	30.35
9.6983	30.73
9.7085	30.54
9.7186	30.50
9.7288	31.07
9.739	31.04
9.7491	31.06
9.7593	30.89
9.7694	30.52
9.7796	30.34
9.7898	31.29
9.7999	29.79
9.8101	30.54
9.8203	31.46
9.8304	31.39
9.8406	30.57
9.8508	30.93
9.8609	31.09
9.8711	31.68
9.8813	30.98
9.8914	30.76
9.9016	31.75
9.9118	29.95
9.9219	30.76
9.9321	31.98
9.9422	30.88
9.9524	30.99
9.9626	31.64
9.9727	31.65
9.9829	30.97
9.9931	31.20
10.0032	32.35
10.0134	31.32
10.0236	31.62
10.0337	32.01
10.0439	32.35
10.0541	31.91
10.0642	31.32
10.0744	31.12
10.0845	31.97
10.0947	31.90
10.1049	32.09
10.115	31.59
10.1252	32.49
10.1354	32.47
10.1455	31.84
10.1557	32.26
10.1659	31.31
10.176	32.44
10.1862	31.84
10.1964	32.71
10.2065	32.51
10.2167	31.81
10.2269	31.96
10.237	32.87
10.2472	32.24
10.2573	31.87
10.2675	32.26
10.2777	32.47
10.2878	32.27
10.298	33.00
10.3082	32.25
10.3183	32.43
10.3285	32.57
10.3387	31.59
10.3488	31.96
10.359	31.92
10.3692	32.38
10.3793	31.93
10.3895	32.49
10.3996	32.20
10.4098	31.80
10.42	33.69
10.4301	32.73
10.4403	32.88
10.4505	32.65
10.4606	32.36
10.4708	33.38
10.481	32.36
10.4911	33.30
10.5013	32.93
10.5115	32.87
10.5216	32.78
10.5318	32.55
10.542	32.59
10.5521	32.43
10.5623	34.65
10.5724	33.40
10.5826	32.81
10.5928	33.13
10.6029	32.95
10.6131	33.13
10.6233	33.82
10.6334	33.01
10.6436	32.58
10.6538	32.84
10.6639	33.16
10.6741	33.47
10.6843	32.76
10.6944	33.72
10.7046	32.76
10.7147	32.75
10.7249	32.74
10.7351	33.13
10.7452	33.74
10.7554	33.43
10.7656	32.32
10.7757	33.23
10.7859	33.46
10.7961	33.66
10.8062	33.00
10.8164	34.43
10.8266	33.66
10.8367	32.86
10.8469	33.87
10.8571	33.26
10.8672	34.63
10.8774	33.97
10.8875	33.57
10.8977	34.04
10.9079	32.97
10.918	34.20
10.9282	33.71
10.9384	34.73
10.9485	34.23
10.9587	34.12
10.9689	34.71
10.979	34.34
10.9892	34.29
10.9994	35.05
11.0095	34.94
11.0197	34.50
11.0298	34.35
11.04	33.48
11.0502	34.23
11.0603	34.10
11.0705	34.52
11.0807	35.21
11.0908	34.56
11.101	35.62
11.1112	34.43
11.1213	34.71
11.1315	35.35
11.1417	34.80
11.1518	34.81
11.162	34.78
11.1722	34.86
11.1823	35.21
11.1925	36.99
11.2026	34.95
11.2128	35.82
11.223	35.07
11.2331	34.98
11.2433	35.15
11.2535	35.21
11.2636	34.87
11.2738	34.95
11.284	35.87
11.2941	35.29
11.3043	35.74
11.3145	34.97
11.3246	35.16
11.3348	35.03
11.3449	35.27
11.3551	35.62
11.3653	36.05
11.3754	35.26
11.3856	35.77
11.3958	35.97
11.4059	35.82
11.4161	35.85
11.4263	34.98
11.4364	35.94
11.4466	35.45
11.4568	35.79
11.4669	36.06
11.4771	36.29
11.4873	36.91
11.4974	37.14
11.5076	36.21
11.5177	36.07
11.5279	35.77
11.5381	36.51
11.5482	36.90
11.5584	37.07
11.5686	36.94
11.5787	36.46
11.5889	36.87
11.5991	36.63
11.6092	35.79
11.6194	37.23
11.6296	36.85
11.6397	36.21
11.6499	36.11
11.66	36.50
11.6702	36.63
11.6804	36.40
11.6905	36.68
11.7007	37.30
11.7109	38.05
11.721	36.45
11.7312	37.51
11.7414	38.66
11.7515	36.93
11.7617	37.94
11.7719	39.45
11.782	37.18
11.7922	37.73
11.8023	37.29
11.8125	36.25
11.8227	36.88
11.8328	37.70
11.843	37.68
11.8532	37.47
11.8633	38.86
11.8735	37.87
11.8837	38.18
11.8938	37.79
11.904	36.70
11.9142	37.98
11.9243	38.56
11.9345	37.57
11.9447	37.84
11.9548	39.01
11.965	37.77
11.9751	38.61
11.9853	38.18
11.9955	38.57
12.0056	38.65
12.0158	38.47
12.026	39.17
12.0361	39.05
12.0463	38.93
12.0565	38.59
12.0666	37.74
12.0768	38.78
12.087	38.71
12.0971	38.96
12.1073	38.64
12.1174	38.38
12.1276	39.87
12.1378	39.60
12.1479	39.25
12.1581	39.31
12.1683	39.00
12.1784	38.87
12.1886	39.02
12.1988	39.09
12.2089	39.45
12.2191	39.11
12.2293	39.96
12.2394	39.52
12.2496	39.61
12.2598	39.65
12.2699	39.35
12.2801	39.73
12.2902	39.68
12.3004	40.20
12.3106	39.54
12.3207	40.09
12.3309	38.96
12.3411	40.33
12.3512	40.03
12.3614	40.20
12.3716	41.35
12.3817	41.00
12.3919	39.78
12.4021	40.74
12.4122	40.59
12.4224	40.09
12.4325	41.27
12.4427	40.51
12.4529	40.63
12.463	39.85
12.4732	41.34
12.4834	41.12
12.4935	40.40
12.5037	41.97
12.5139	41.52
12.524	41.75
12.5342	41.32
12.5444	41.50
12.5545	41.14
12.5647	41.24
12.5749	40.13
12.585	40.89
12.5952	41.60
12.6053	41.49
12.6155	40.87
12.6257	41.99
12.6358	41.40
12.646	41.16
12.6562	42.01
12.6663	42.10
12.6765	41.42
12.6867	43.70
12.6968	41.72
12.707	42.66
12.7172	42.62
12.7273	42.01
12.7375	42.48
12.7476	42.46
12.7578	42.93
12.768	41.46
12.7781	43.31
12.7883	43.37
12.7985	42.40
12.8086	43.22
12.8188	43.40
12.829	44.04
12.8391	43.10
12.8493	43.49
12.8595	42.32
12.8696	43.32
12.8798	43.69
12.89	43.67
12.9001	43.15
12.9103	42.58
12.9204	43.78
12.9306	44.29
12.9408	43.92
12.9509	43.80
12.9611	43.80
12.9713	44.60
12.9814	43.63
12.9916	44.51
13.0018	44.67
13.0119	43.51
13.0221	44.77
13.0323	44.77
13.0424	43.86
13.0526	44.68
13.0627	43.47
13.0729	44.07
13.0831	43.52
13.0932	44.82
13.1034	43.40
13.1136	44.41
13.1237	44.93
13.1339	44.13
13.1441	44.52
13.1542	45.38
13.1644	45.54
13.1746	45.23
13.1847	45.34
13.1949	45.04
13.2051	45.46
13.2152	44.98
13.2254	45.16
13.2355	46.57
13.2457	44.65
13.2559	46.25
13.266	46.03
13.2762	44.71
13.2864	46.41
13.2965	45.90
13.3067	45.93
13.3169	47.30
13.327	46.10
13.3372	46.41
13.3474	46.79
13.3575	45.45
13.3677	47.14
13.3778	46.33
13.388	46.98
13.3982	47.68
13.4083	47.75
13.4185	47.28
13.4287	46.73
13.4388	47.46
13.449	48.37
13.4592	48.26
13.4693	48.26
13.4795	47.29
13.4897	47.16
13.4998	47.75
13.51	47.97
13.5201	48.13
13.5303	48.14
13.5405	47.73
13.5506	48.46
13.5608	48.26
13.571	48.51
13.5811	48.74
13.5913	49.08
13.6015	48.04
13.6116	49.60
13.6218	49.10
13.632	49.74
13.6421	49.44
13.6523	50.19
13.6625	49.65
13.6726	50.10
13.6828	49.21
13.6929	49.58
13.7031	50.67
13.7133	50.34
13.7234	49.52
13.7336	49.37
13.7438	48.98
13.7539	49.88
13.7641	51.31
13.7743	50.55
13.7844	50.60
13.7946	51.34
13.8048	51.63
13.8149	51.42
13.8251	51.89
13.8352	51.41
13.8454	49.60
13.8556	52.29
13.8657	51.01
13.8759	51.21
13.8861	51.29
13.8962	51.51
13.9064	51.79
13.9166	51.56
13.9267	50.63
13.9369	51.70
13.9471	52.20
13.9572	52.39
13.9674	52.21
13.9776	51.58
13.9877	51.99
13.9979	52.27
14.008	52.95
14.0182	53.95
14.0284	52.60
14.0385	53.62
14.0487	53.84
14.0589	53.07
14.069	52.85
14.0792	53.33
14.0894	53.58
14.0995	54.91
14.1097	54.30
14.1199	54.10
14.13	52.88
14.1402	52.52
14.1503	53.40
14.1605	55.28
14.1707	54.87
14.1808	54.62
14.191	55.96
14.2012	55.26
14.2113	55.30
14.2215	55.82
14.2317	55.01
14.2418	55.21
14.252	54.95
14.2622	54.43
14.2723	57.09
14.2825	55.96
14.2927	55.60
14.3028	55.40
14.313	56.24
14.3231	55.57
14.3333	55.90
14.3435	56.54
14.3536	56.34
14.3638	56.37
14.374	56.51
14.3841	56.49
14.3943	57.48
14.4045	56.14
14.4146	56.20
14.4248	56.21
14.435	56.88
14.4451	57.87
14.4553	57.71
14.4654	56.74
14.4756	57.82
14.4858	58.12
14.4959	58.37
14.5061	57.68
14.5163	58.26
14.5264	57.80
14.5366	57.86
14.5468	59.49
14.5569	58.49
14.5671	58.51
14.5773	58.70
14.5874	58.71
14.5976	59.01
14.6078	59.04
14.6179	60.25
14.6281	58.59
14.6382	59.23
14.6484	59.84
14.6586	59.07
14.6687	58.98
14.6789	60.14
14.6891	60.20
14.6992	59.91
14.7094	60.75
14.7196	60.77
14.7297	60.46
14.7399	59.94
14.7501	60.61
14.7602	61.02
14.7704	61.09
14.7805	60.70
14.7907	60.68
14.8009	61.49
14.811	61.23
14.8212	60.51
14.8314	63.83
14.8415	61.68
14.8517	62.93
14.8619	61.87
14.872	62.77
14.8822	62.40
14.8924	63.04
14.9025	62.90
14.9127	62.76
14.9229	62.73
14.933	63.65
14.9432	63.37
14.9533	63.71
14.9635	64.10
14.9737	63.01
14.9838	63.23
14.994	64.07
15.0042	62.74
15.0143	63.94
15.0245	66.07
15.0347	64.14
15.0448	65.34
15.055	65.65
15.0652	64.74
15.0753	66.45
15.0855	65.93
15.0956	65.45
15.1058	65.12
15.116	66.69
15.1261	65.16
15.1363	66.48
15.1465	66.59
15.1566	66.51
15.1668	66.77
15.177	66.69
15.1871	66.72
15.1973	66.49
15.2075	67.79
15.2176	68.47
15.2278	68.12
15.238	68.52
15.2481	67.37
15.2583	68.43
15.2684	67.62
15.2786	68.28
15.2888	67.13
15.2989	68.11
15.3091	68.94
15.3193	69.51
15.3294	69.30
15.3396	70.70
15.3498	69.07
15.3599	69.00
15.3701	69.96
15.3803	69.95
15.3904	70.88
15.4006	69.63
15.4107	70.99
15.4209	71.05
15.4311	71.47
15.4412	70.97
15.4514	69.88
15.4616	71.27
15.4717	71.18
15.4819	70.18
15.4921	71.75
15.5022	70.96
15.5124	71.58
15.5226	72.57
15.5327	73.04
15.5429	71.86
15.553	71.39
15.5632	72.41
15.5734	71.77
15.5835	72.95
15.5937	73.56
15.6039	73.49
15.614	73.63
15.6242	73.39
15.6344	73.15
15.6445	74.39
15.6547	75.62
15.6649	74.55
15.675	73.07
15.6852	75.18
15.6954	75.38
15.7055	75.29
15.7157	74.63
15.7258	74.49
15.736	75.88
15.7462	74.91
15.7563	75.31
15.7665	74.29
15.7767	76.43
15.7868	75.11
15.797	76.18
15.8072	76.76
15.8173	75.87
15.8275	76.61
15.8377	76.01
15.8478	77.90
15.858	77.38
15.8681	76.99
15.8783	75.74
15.8885	78.52
15.8986	78.17
15.9088	78.82
15.919	78.65
15.9291	78.52
15.9393	78.58
15.9495	79.86
15.9596	79.20
15.9698	78.52
15.98	79.74
15.9901	79.62
16.0003	79.73
16.0105	78.93
16.0206	80.85
16.0308	80.46
16.0409	80.33
16.0511	80.58
16.0613	80.49
16.0714	79.73
16.0816	81.37
16.0918	81.48
16.1019	82.38
16.1121	80.91
16.1223	81.30
16.1324	81.23
16.1426	81.40
16.1528	82.39
16.1629	83.09
16.1731	83.69
16.1832	83.09
16.1934	83.90
16.2036	82.79
16.2137	83.11
16.2239	83.74
16.2341	84.11
16.2442	84.51
16.2544	85.18
16.2646	84.36
16.2747	85.03
16.2849	85.93
16.2951	86.63
16.3052	85.67
16.3154	84.53
16.3256	87.10
16.3357	84.46
16.3459	85.03
16.356	86.68
16.3662	85.99
16.3764	87.21
16.3865	87.92
16.3967	87.67
16.4069	86.45
16.417	88.14
16.4272	87.96
16.4374	88.13
16.4475	87.95
16.4577	88.78
16.4679	88.63
16.478	89.95
16.4882	89.53
16.4983	90.29
16.5085	90.35
16.5187	89.88
16.5288	91.33
16.539	91.25
16.5492	89.51
16.5593	91.69
16.5695	91.00
16.5797	90.45
16.5898	91.35
16.6	92.73
16.6102	90.66
16.6203	92.59
16.6305	90.21
16.6407	94.15
16.6508	93.74
16.661	94.63
16.6711	94.51
16.6813	94.38
16.6915	93.82
16.7016	92.40
16.7118	94.55
16.722	96.87
16.7321	96.21
16.7423	94.96
16.7525	96.09
16.7626	95.73
16.7728	96.05
16.783	95.93
16.7931	97.23
16.8033	96.02
16.8134	96.59
16.8236	97.32
16.8338	97.54
16.8439	96.93
16.8541	97.70
16.8643	96.91
16.8744	99.66
16.8846	99.07
16.8948	99.37
16.9049	98.48
16.9151	99.37
16.9253	97.20
16.9354	99.11
16.9456	98.63
16.9558	100.73
16.9659	100.74
16.9761	99.88
16.9862	97.40
16.9964	101.32
17.0066	100.49
17.0167	99.66
17.0269	100.88
17.0371	100.07
17.0472	101.38
17.0574	99.87
17.0676	101.55
17.0777	102.66
17.0879	101.67
17.0981	102.65
17.1082	101.97
17.1184	102.89
17.1285	103.70
17.1387	104.12
17.1489	103.05
17.159	101.66
17.1692	104.27
17.1794	104.18
17.1895	104.05
17.1997	101.81
17.2099	103.35
17.22	104.21
17.2302	105.54
17.2404	107.30
17.2505	103.54
17.2607	104.55
17.2709	104.90
17.281	105.07
17.2912	104.14
17.3013	107.36
17.3115	105.07
17.3217	104.76
17.3318	107.62
17.342	106.69
17.3522	106.74
17.3623	107.40
17.3725	107.36
17.3827	110.15
17.3928	109.34
17.403	107.98
17.4132	108.78
17.4233	108.05
17.4335	109.18
17.4436	108.98
17.4538	110.16
17.464	110.39
17.4741	110.90
17.4843	111.66
17.4945	111.06
17.5046	112.37
17.5148	112.27
17.525	112.74
17.5351	110.33
17.5453	112.95
17.5555	112.59
17.5656	112.42
17.5758	113.59
17.5859	113.26
17.5961	113.82
17.6063	114.10
17.6164	113.92
17.6266	114.97
17.6368	115.73
17.6469	115.72
17.6571	117.44
17.6673	118.71
17.6774	118.11
17.6876	118.18
17.6978	120.09
17.7079	119.13
17.7181	119.07
17.7283	118.91
17.7384	120.46
17.7486	119.89
17.7587	121.52
17.7689	122.96
17.7791	121.66
17.7892	122.24
17.7994	124.16
17.8096	122.97
17.8197	124.68
17.8299	126.53
17.8401	127.47
17.8502	126.27
17.8604	128.32
17.8706	128.82
17.8807	129.27
17.8909	128.79
17.901	132.51
17.9112	132.82
17.9214	132.07
17.9315	133.94
17.9417	135.18
17.9519	135.05
17.962	135.61
17.9722	137.03
17.9824	139.01
17.9925	138.43
18.0027	142.05
18.0129	142.10
18.023	140.48
18.0332	143.96
18.0434	145.37
18.0535	144.72
18.0637	147.22
18.0738	150.28
18.084	150.50
18.0942	152.34
18.1043	153.07
18.1145	154.85
18.1247	158.09
18.1348	158.26
18.145	159.82
18.1552	161.68
18.1653	164.68
18.1755	167.41
18.1857	169.10
18.1958	168.71
18.206	171.52
18.2161	176.59
18.2263	175.23
18.2365	176.85
18.2466	180.59
18.2568	181.42
18.267	184.13
18.2771	188.41
18.2873	190.55
18.2975	188.76
18.3076	197.99
18.3178	199.32
18.328	200.01
18.3381	204.96
18.3483	209.83
18.3585	207.96
18.3686	214.47
18.3788	216.57
18.3889	215.20
18.3991	223.35
18.4093	227.55
18.4194	228.77
18.4296	233.62
18.4398	232.80
18.4499	236.65
18.4601	243.23
18.4703	244.29
18.4804	245.93
18.4906	249.74
18.5008	255.41
18.5109	254.66
18.5211	257.57
18.5312	257.83
18.5414	259.80
18.5516	267.07
18.5617	262.15
18.5719	264.04
18.5821	268.55
18.5922	267.31
18.6024	269.02
18.6126	271.56
18.6227	273.19
18.6329	269.70
18.6431	271.76
18.6532	271.67
18.6634	267.33
18.6736	269.94
18.6837	270.63
18.6939	268.20
18.704	266.32
18.7142	264.48
18.7244	263.81
18.7345	261.12
18.7447	259.95
18.7549	256.12
18.765	256.72
18.7752	254.52
18.7854	249.21
18.7955	249.04
18.8057	244.94
18.8159	240.17
18.826	236.44
18.8362	234.42
18.8463	230.78
18.8565	228.88
18.8667	229.03
18.8768	220.71
18.887	218.75
18.8972	214.10
18.9073	212.70
18.9175	210.97
18.9277	207.16
18.9378	203.63
18.948	201.64
18.9582	200.29
18.9683	194.48
18.9785	193.45
18.9887	191.67
18.9988	185.47
19.009	185.16
19.0191	182.55
19.0293	180.02
19.0395	179.24
19.0496	177.99
19.0598	173.99
19.07	173.09
19.0801	168.77
19.0903	167.97
19.1005	167.70
19.1106	165.17
19.1208	162.29
19.131	162.02
19.1411	159.83
19.1513	158.74
19.1614	155.60
19.1716	153.85
19.1818	155.60
19.1919	152.85
19.2021	152.04
19.2123	149.73
19.2224	148.62
19.2326	145.51
19.2428	145.88
19.2529	144.81
19.2631	146.70
19.2733	142.13
19.2834	143.83
19.2936	141.46
19.3038	139.91
19.3139	140.63
19.3241	138.42
19.3342	139.13
19.3444	137.45
19.3546	137.04
19.3647	135.56
19.3749	135.43
19.3851	136.85
19.3952	134.57
19.4054	133.70
19.4156	134.14
19.4257	131.68
19.4359	132.80
19.4461	132.10
19.4562	130.68
19.4664	131.94
19.4765	131.61
19.4867	129.05
19.4969	128.67
19.507	127.31
19.5172	128.57
19.5274	129.66
19.5375	128.46
19.5477	129.29
19.5579	128.28
19.568	126.65
19.5782	126.90
19.5884	127.41
19.5985	128.27
19.6087	126.43
19.6188	125.84
19.629	128.37
19.6392	126.51
19.6493	127.06
19.6595	125.85
19.6697	124.63
19.6798	124.46
19.69	125.79
19.7002	125.58
19.7103	124.20
19.7205	126.27
19.7307	124.46
19.7408	123.82
19.751	125.83
19.7612	125.32
19.7713	125.43
19.7815	123.40
19.7916	123.87
19.8018	123.64
19.812	126.41
19.8221	124.04
19.8323	124.91
19.8425	123.88
19.8526	124.74
19.8628	126.41
19.873	125.88
19.8831	125.23
19.8933	126.05
19.9035	127.14
19.9136	125.60
19.9238	127.02
19.9339	124.48
19.9441	127.43
19.9543	126.66
19.9644	127.18
19.9746	128.34
19.9848	125.54
19.9949	126.70
20.0051	126.48
20.0153	128.71
20.0254	128.30
20.0356	127.90
20.0458	128.58
20.0559	128.81
20.0661	128.30
20.0763	130.99
20.0864	129.14
20.0966	128.65
20.1067	132.37
20.1169	130.99
20.1271	129.39
20.1372	132.02
20.1474	132.84
20.1576	134.58
20.1677	134.14
20.1779	133.40
20.1881	133.53
20.1982	135.09
20.2084	136.02
20.2186	133.72
20.2287	135.59
20.2389	135.68
20.249	135.18
20.2592	138.14
20.2694	139.41
20.2795	137.41
20.2897	137.26
20.2999	141.02
20.31	138.34
20.3202	142.72
20.3304	142.20
20.3405	139.91
20.3507	140.18
20.3609	142.47
20.371	141.02
20.3812	142.05
20.3914	144.18
20.4015	141.05
20.4117	142.43
20.4218	144.96
20.432	144.71
20.4422	143.79
20.4523	143.70
20.4625	143.46
20.4727	145.73
20.4828	148.36
20.493	143.72
20.5032	146.93
20.5133	148.46
20.5235	147.07
20.5337	147.73
20.5438	148.34
20.554	146.76
20.5641	147.52
20.5743	148.59
20.5845	147.57
20.5946	147.30
20.6048	147.63
20.615	147.04
20.6251	146.51
20.6353	146.20
20.6455	147.01
20.6556	147.08
20.6658	144.33
20.676	146.62
20.6861	144.31
20.6963	145.10
20.7065	143.84
20.7166	143.56
20.7268	144.02
20.7369	141.52
20.7471	142.55
20.7573	141.40
20.7674	138.51
20.7776	141.87
20.7878	140.21
20.7979	138.68
20.8081	139.04
20.8183	139.56
20.8284	136.12
20.8386	136.95
20.8488	137.64
20.8589	134.35
20.8691	134.02
20.8792	132.88
20.8894	132.18
20.8996	131.62
20.9097	132.30
20.9199	129.69
20.9301	130.55
20.9402	130.88
20.9504	129.97
20.9606	127.59
20.9707	125.90
20.9809	126.82
20.9911	127.71
21.0012	125.01
21.0114	124.92
21.0216	126.21
21.0317	125.79
21.0419	123.61
21.052	123.08
21.0622	121.64
21.0724	120.37
21.0825	122.60
21.0927	122.15
21.1029	119.94
21.113	120.80
21.1232	120.59
21.1334	118.16
21.1435	118.42
21.1537	118.01
21.1639	115.46
21.174	117.52
21.1842	117.45
21.1943	116.41
21.2045	115.73
21.2147	115.81
21.2248	114.86
21.235	114.82
21.2452	115.89
21.2553	113.34
21.2655	113.96
21.2757	114.73
21.2858	112.98
21.296	112.49
21.3062	112.86
21.3163	112.29
21.3265	113.62
21.3366	113.40
21.3468	112.38
21.357	111.28
21.3671	112.24
21.3773	111.74
21.3875	112.51
21.3976	112.43
21.4078	111.43
21.418	111.66
21.4281	110.76
21.4383	111.79
21.4485	111.88
21.4586	112.35
21.4688	109.62
21.479	112.53
21.4891	113.34
21.4993	110.40
21.5094	112.37
21.5196	112.34
21.5298	111.75
21.5399	112.68
21.5501	113.18
21.5603	111.15
21.5704	112.75
21.5806	114.60
21.5908	112.62
21.6009	112.27
21.6111	113.68
21.6213	113.54
21.6314	114.12
21.6416	115.34
21.6517	114.84
21.6619	115.54
21.6721	116.87
21.6822	115.95
21.6924	117.84
21.7026	118.48
21.7127	117.92
21.7229	116.46
21.7331	120.68
21.7432	120.15
21.7534	121.83
21.7636	120.92
21.7737	121.76
21.7839	123.76
21.7941	124.56
21.8042	124.62
21.8144	126.35
21.8245	124.80
21.8347	124.62
21.8449	127.73
21.855	128.63
21.8652	126.12
21.8754	129.78
21.8855	129.26
21.8957	128.16
21.9059	133.15
21.916	131.09
21.9262	130.94
21.9364	133.30
21.9465	136.00
21.9567	134.21
21.9668	138.48
21.977	137.17
21.9872	136.39
21.9973	138.76
22.0075	138.97
22.0177	140.57
22.0278	143.26
22.038	142.30
22.0482	142.74
22.0583	146.38
22.0685	145.95
22.0787	146.31
22.0888	148.43
22.099	150.20
22.1092	150.13
22.1193	152.37
22.1295	152.78
22.1396	151.67
22.1498	156.83
22.16	155.61
22.1701	155.55
22.1803	160.13
22.1905	158.74
22.2006	157.74
22.2108	160.63
22.221	161.53
22.2311	161.24
22.2413	164.39
22.2515	163.55
22.2616	163.53
22.2718	165.40
22.2819	168.81
22.2921	164.19
22.3023	167.23
22.3124	169.70
22.3226	165.93
22.3328	170.27
22.3429	170.02
22.3531	168.99
22.3633	169.99
22.3734	171.55
22.3836	170.02
22.3938	171.58
22.4039	171.66
22.4141	170.30
22.4243	171.49
22.4344	172.59
22.4446	171.52
22.4547	169.46
22.4649	173.01
22.4751	169.20
22.4852	173.14
22.4954	170.02
22.5056	169.20
22.5157	170.53
22.5259	168.71
22.5361	167.72
22.5462	166.60
22.5564	168.70
22.5666	165.99
22.5767	165.84
22.5869	165.09
22.597	161.96
22.6072	162.01
22.6174	163.90
22.6275	161.38
22.6377	161.80
22.6479	160.77
22.658	159.49
22.6682	159.32
22.6784	159.32
22.6885	155.72
22.6987	155.20
22.7089	155.45
22.719	151.84
22.7292	153.24
22.7394	153.54
22.7495	149.80
22.7597	150.21
22.7698	147.17
22.78	144.53
22.7902	147.16
22.8003	147.40
22.8105	146.21
22.8207	142.08
22.8308	141.82
22.841	140.40
22.8512	139.93
22.8613	139.68
22.8715	137.74
22.8817	136.85
22.8918	134.39
22.902	133.84
22.9121	134.10
22.9223	133.45
22.9325	130.25
22.9426	130.38
22.9528	129.30
22.963	125.71
22.9731	127.55
22.9833	127.17
22.9935	124.57
23.0036	122.71
23.0138	123.93
23.024	122.72
23.0341	120.57
23.0443	119.48
23.0545	117.98
23.0646	119.45
23.0748	119.02
23.0849	115.10
23.0951	116.98
23.1053	114.40
23.1154	111.88
23.1256	112.11
23.1358	112.90
23.1459	109.83
23.1561	111.23
23.1663	109.50
23.1764	109.99
23.1866	108.23
23.1968	105.46
23.2069	104.81
23.2171	105.27
23.2272	105.72
23.2374	104.64
23.2476	103.10
23.2577	101.75
23.2679	101.82
23.2781	99.42
23.2882	98.91
23.2984	100.10
23.3086	98.53
23.3187	99.22
23.3289	97.35
23.3391	98.05
23.3492	95.96
23.3594	95.28
23.3695	93.06
23.3797	92.88
23.3899	93.62
23.4	95.43
23.4102	91.71
23.4204	92.27
23.4305	92.13
23.4407	90.72
23.4509	91.74
23.461	89.12
23.4712	88.71
23.4814	88.76
23.4915	87.95
23.5017	86.70
23.5119	86.69
23.522	86.41
23.5322	85.10
23.5423	83.74
23.5525	83.83
23.5627	84.66
23.5728	82.95
23.583	84.23
23.5932	84.45
23.6033	81.38
23.6135	82.00
23.6237	82.20
23.6338	81.20
23.644	80.59
23.6542	81.09
23.6643	81.24
23.6745	79.66
23.6846	79.84
23.6948	79.16
23.705	78.00
23.7151	78.15
23.7253	76.52
23.7355	77.60
23.7456	77.13
23.7558	77.38
23.766	75.30
23.7761	77.38
23.7863	75.78
23.7965	75.61
23.8066	75.78
23.8168	74.59
23.827	74.37
23.8371	73.54
23.8473	74.26
23.8574	74.13
23.8676	73.27
23.8778	72.81
23.8879	73.03
23.8981	72.66
23.9083	72.70
23.9184	72.30
23.9286	72.45
23.9388	71.07
23.9489	70.67
23.9591	71.04
23.9693	71.28
23.9794	69.59
23.9896	70.05
23.9997	69.52
24.0099	68.63
24.0201	69.40
24.0302	69.99
24.0404	69.64
24.0506	68.87
24.0607	67.60
24.0709	67.99
24.0811	68.62
24.0912	68.99
24.1014	68.15
24.1116	66.84
24.1217	65.78
24.1319	67.91
24.1421	66.68
24.1522	66.80
24.1624	66.37
24.1725	66.65
24.1827	66.50
24.1929	65.87
24.203	66.62
24.2132	66.52
24.2234	64.30
24.2335	64.86
24.2437	64.95
24.2539	64.68
24.264	65.14
24.2742	63.73
24.2844	64.87
24.2945	63.77
24.3047	64.10
24.3148	62.80
24.325	63.78
24.3352	63.66
24.3453	64.27
24.3555	63.67
24.3657	63.62
24.3758	61.93
24.386	61.96
24.3962	62.81
24.4063	64.00
24.4165	61.78
24.4267	62.57
24.4368	62.24
24.447	61.73
24.4572	61.35
24.4673	62.37
24.4775	61.26
24.4876	61.84
24.4978	62.43
24.508	61.13
24.5181	60.01
24.5283	60.62
24.5385	60.44
24.5486	60.24
24.5588	60.12
24.569	60.98
24.5791	59.63
24.5893	60.95
24.5995	60.07
24.6096	61.01
24.6198	60.16
24.6299	60.76
24.6401	61.16
24.6503	59.08
24.6604	58.87
24.6706	60.15
24.6808	59.03
24.6909	59.85
24.7011	60.20
24.7113	59.12
24.7214	59.38
24.7316	59.07
24.7418	59.33
24.7519	58.29
24.7621	58.86
24.7723	57.99
24.7824	58.66
24.7926	58.09
24.8027	58.76
24.8129	58.45
24.8231	57.45
24.8332	57.72
24.8434	58.55
24.8536	57.80
24.8637	57.70
24.8739	57.62
24.8841	57.76
24.8942	58.63
24.9044	58.12
24.9146	58.15
24.9247	59.65
24.9349	58.18
24.945	57.61
24.9552	56.22
24.9654	56.99
24.9755	56.78
24.9857	57.11
24.9959	57.38
25.006	57.48
25.0162	56.41
25.0264	57.22
25.0365	56.99
25.0467	56.87
25.0569	56.90
25.067	56.05
25.0772	56.87
25.0874	55.37
25.0975	57.60
25.1077	56.71
25.1178	56.54
25.128	56.00
25.1382	56.62
25.1483	56.34
25.1585	56.15
25.1687	55.85
25.1788	55.84
25.189	55.47
25.1992	56.93
25.2093	56.74
25.2195	56.28
25.2297	55.98
25.2398	56.12
25.25	54.46
25.2601	55.53
25.2703	54.95
25.2805	54.36
25.2906	54.60
25.3008	54.14
25.311	54.76
25.3211	55.14
25.3313	56.05
25.3415	55.39
25.3516	55.24
25.3618	55.37
25.372	54.95
25.3821	54.47
25.3923	55.12
25.4024	55.16
25.4126	55.36
25.4228	54.74
25.4329	54.05
25.4431	55.41
25.4533	55.75
25.4634	55.40
25.4736	54.65
25.4838	55.34
25.4939	54.76
25.5041	54.53
25.5143	54.12
25.5244	54.12
25.5346	54.58
25.5448	55.02
25.5549	53.38
25.5651	54.09
25.5752	54.66
25.5854	53.43
25.5956	54.36
25.6057	53.91
25.6159	54.34
25.6261	54.18
25.6362	55.04
25.6464	53.50
25.6566	54.82
25.6667	54.11
25.6769	52.30
25.6871	54.13
25.6972	53.79
25.7074	53.69
25.7175	53.07
25.7277	53.42
25.7379	53.48
25.748	53.28
25.7582	52.93
25.7684	53.19
25.7785	53.71
25.7887	53.40
25.7989	52.68
25.809	53.05
25.8192	52.87
25.8294	51.80
25.8395	52.63
25.8497	53.06
25.8599	51.77
25.87	52.35
25.8802	53.55
25.8903	51.96
25.9005	52.37
25.9107	52.74
25.9208	52.65
25.931	52.45
25.9412	52.20
25.9513	52.08
25.9615	52.36
25.9717	52.32
25.9818	51.91
25.992	51.68
26.0022	51.48
26.0123	51.42
26.0225	51.30
26.0326	51.76
26.0428	51.49
26.053	51.85
26.0631	50.83
26.0733	50.52
26.0835	51.52
26.0936	51.21
26.1038	51.20
26.114	50.29
26.1241	50.63
26.1343	51.29
26.1445	51.20
26.1546	50.84
26.1648	51.04
26.175	50.59
26.1851	50.35
26.1953	50.42
26.2054	50.05
26.2156	50.68
26.2258	50.73
26.2359	51.27
26.2461	50.63
26.2563	50.71
26.2664	50.59
26.2766	49.99
26.2868	51.62
26.2969	49.45
26.3071	50.13
26.3173	49.94
26.3274	49.47
26.3376	50.26
26.3477	50.15
26.3579	49.09
26.3681	49.57
26.3782	49.41
26.3884	50.04
26.3986	50.52
26.4087	48.67
26.4189	48.85
26.4291	48.96
26.4392	49.04
26.4494	49.30
26.4596	49.23
26.4697	49.20
26.4799	47.73
26.4901	48.23
26.5002	48.88
26.5104	49.99
26.5205	48.49
26.5307	48.55
26.5409	48.72
26.551	48.37
26.5612	49.08
26.5714	48.76
26.5815	48.86
26.5917	49.63
26.6019	48.89
26.612	48.29
26.6222	47.66
26.6324	48.02
26.6425	49.23
26.6527	48.25
26.6628	48.68
26.673	48.20
26.6832	48.54
26.6933	48.91
26.7035	47.76
26.7137	48.61
26.7238	47.47
26.734	49.37
26.7442	48.68
26.7543	48.07
26.7645	47.59
26.7747	48.46
26.7848	47.16
26.795	48.22
26.8052	47.93
26.8153	47.49
26.8255	47.64
26.8356	47.98
26.8458	48.74
26.856	48.70
26.8661	47.04
26.8763	47.54
26.8865	48.67
26.8966	47.26
26.9068	48.76
26.917	47.71
26.9271	47.19
26.9373	46.93
26.9475	47.04
26.9576	48.30
26.9678	47.95
26.9779	47.84
26.9881	47.14
26.9983	46.78
27.0084	48.07
27.0186	46.80
27.0288	47.77
27.0389	47.42
27.0491	47.12
27.0593	47.93
27.0694	47.82
27.0796	47.50
27.0898	47.77
27.0999	47.87
27.1101	46.99
27.1202	48.42
27.1304	47.62
27.1406	46.97
27.1507	46.99
27.1609	47.54
27.1711	47.37
27.1812	47.31
27.1914	46.76
27.2016	47.51
27.2117	47.45
27.2219	46.45
27.2321	47.38
27.2422	45.98
27.2524	47.46
27.2626	47.68
27.2727	47.79
27.2829	47.94
27.293	46.73
27.3032	47.49
27.3134	47.20
27.3235	47.95
27.3337	47.89
27.3439	47.30
27.354	47.82
27.3642	47.84
27.3744	48.15
27.3845	47.27
27.3947	47.75
27.4049	47.38
27.415	47.87
27.4252	48.35
27.4353	48.33
27.4455	46.96
27.4557	47.54
27.4658	48.05
27.476	47.97
27.4862	48.21
27.4963	48.25
27.5065	48.21
27.5167	48.05
27.5268	49.14
27.537	48.96
27.5472	49.09
27.5573	49.04
27.5675	48.63
27.5777	48.70
27.5878	47.88
27.598	48.56
27.6081	48.63
27.6183	49.41
27.6285	48.73
27.6386	49.37
27.6488	50.32
27.659	49.55
27.6691	50.99
27.6793	50.34
27.6895	50.73
27.6996	50.48
27.7098	51.07
27.72	51.57
27.7301	51.67
27.7403	51.47
27.7504	51.52
27.7606	52.16
27.7708	51.37
27.7809	51.74
27.7911	52.34
27.8013	51.82
27.8114	53.23
27.8216	52.26
27.8318	53.38
27.8419	52.70
27.8521	53.26
27.8623	53.98
27.8724	53.76
27.8826	54.10
27.8928	53.80
27.9029	54.24
27.9131	55.37
27.9232	55.63
27.9334	55.51
27.9436	55.85
27.9537	55.80
27.9639	56.43
27.9741	56.90
27.9842	57.22
27.9944	57.13
28.0046	58.94
28.0147	57.60
28.0249	58.53
28.0351	58.81
28.0452	59.19
28.0554	60.05
28.0655	59.90
28.0757	60.65
28.0859	60.99
28.096	60.71
28.1062	62.01
28.1164	61.98
28.1265	62.40
28.1367	63.10
28.1469	64.37
28.157	62.95
28.1672	64.66
28.1774	63.63
28.1875	65.24
28.1977	66.01
28.2079	66.66
28.218	66.76
28.2282	67.92
28.2383	68.10
28.2485	68.70
28.2587	69.28
28.2688	69.63
28.279	69.87
28.2892	70.91
28.2993	70.84
28.3095	69.34
28.3197	71.60
28.3298	70.88
28.34	71.01
28.3502	71.35
28.3603	71.27
28.3705	70.66
28.3806	71.64
28.3908	71.81
28.401	72.14
28.4111	71.46
28.4213	73.47
28.4315	74.16
28.4416	72.30
28.4518	73.53
28.462	72.57
28.4721	72.95
28.4823	73.95
28.4925	73.07
28.5026	71.91
28.5128	73.41
28.523	72.95
28.5331	73.93
28.5433	74.17
28.5534	71.93
28.5636	72.71
28.5738	73.41
28.5839	72.02
28.5941	73.29
28.6043	72.37
28.6144	72.09
28.6246	73.66
28.6348	71.78
28.6449	70.71
28.6551	72.28
28.6653	72.30
28.6754	70.40
28.6856	70.76
28.6957	70.92
28.7059	67.61
28.7161	68.50
28.7262	69.43
28.7364	68.49
28.7466	68.80
28.7567	67.95
28.7669	68.12
28.7771	68.41
28.7872	67.84
28.7974	67.18
28.8076	67.37
28.8177	66.19
28.8279	65.25
28.8381	66.25
28.8482	66.20
28.8584	64.35
28.8685	64.34
28.8787	63.75
28.8889	63.54
28.899	64.18
28.9092	62.93
28.9194	62.85
28.9295	62.51
28.9397	62.21
28.9499	61.44
28.96	61.24
28.9702	61.79
28.9804	59.05
28.9905	60.54
29.0007	60.71
29.0108	58.74
29.021	57.68
29.0312	58.68
29.0413	57.31
29.0515	57.04
29.0617	58.36
29.0718	57.59
29.082	56.73
29.0922	55.86
29.1023	56.62
29.1125	55.71
29.1227	54.12
29.1328	54.54
29.143	54.22
29.1531	54.94
29.1633	54.02
29.1735	53.68
29.1836	52.76
29.1938	52.99
29.204	52.70
29.2141	52.40
29.2243	53.12
29.2345	52.30
29.2446	51.84
29.2548	52.24
29.265	53.11
29.2751	50.76
29.2853	50.05
29.2955	51.93
29.3056	50.40
29.3158	49.29
29.3259	49.85
29.3361	50.38
29.3463	49.80
29.3564	50.48
29.3666	49.76
29.3768	49.59
29.3869	49.12
29.3971	48.84
29.4073	48.31
29.4174	48.21
29.4276	48.26
29.4378	48.40
29.4479	47.61
29.4581	48.46
29.4682	47.06
29.4784	47.90
29.4886	47.13
29.4987	46.13
29.5089	46.15
29.5191	46.57
29.5292	46.87
29.5394	46.38
29.5496	46.82
29.5597	45.23
29.5699	46.24
29.5801	46.95
29.5902	45.54
29.6004	45.30
29.6106	46.56
29.6207	46.10
29.6309	43.57
29.641	45.16
29.6512	44.54
29.6614	45.20
29.6715	44.87
29.6817	44.23
29.6919	44.19
29.702	44.86
29.7122	43.38
29.7224	44.38
29.7325	43.66
29.7427	44.35
29.7529	43.70
29.763	43.30
29.7732	43.01
29.7833	43.49
29.7935	43.90
29.8037	42.98
29.8138	43.00
29.824	43.53
29.8342	43.27
29.8443	43.48
29.8545	43.38
29.8647	42.79
29.8748	43.08
29.885	43.30
29.8952	43.45
29.9053	42.76
29.9155	42.46
29.9257	42.52
29.9358	42.48
29.946	43.21
29.9561	43.11
29.9663	42.66
29.9765	42.51
29.9866	42.20
29.9968	42.99
30.007	43.20
30.0171	42.54
30.0273	43.04
30.0375	42.38
30.0476	41.55
30.0578	42.46
30.068	42.10
30.0781	42.42
30.0883	42.77
30.0984	41.92
30.1086	42.37
30.1188	41.65
30.1289	41.83
30.1391	41.46
30.1493	41.76
30.1594	41.87
30.1696	40.71
30.1798	40.82
30.1899	40.77
30.2001	40.99
30.2103	40.30
30.2204	41.34
30.2306	41.04
30.2408	40.33
30.2509	40.54
30.2611	40.45
30.2712	40.35
30.2814	40.37
30.2916	40.42
30.3017	40.04
30.3119	40.39
30.3221	40.31
30.3322	39.13
30.3424	39.31
30.3526	39.03
30.3627	38.95
30.3729	39.51
30.3831	38.62
30.3932	39.40
30.4034	38.61
30.4135	37.69
30.4237	38.87
30.4339	38.07
30.444	37.60
30.4542	38.31
30.4644	38.14
30.4745	38.12
30.4847	37.95
30.4949	37.54
30.505	37.41
30.5152	37.66
30.5254	38.09
30.5355	37.60
30.5457	37.54
30.5559	37.90
30.566	37.60
30.5762	37.16
30.5863	37.37
30.5965	36.41
30.6067	36.48
30.6168	36.85
30.627	36.86
30.6372	36.09
30.6473	36.18
30.6575	36.76
30.6677	35.27
30.6778	35.73
30.688	36.08
30.6982	35.02
30.7083	36.15
30.7185	36.34
30.7286	35.15
30.7388	36.26
30.749	36.20
30.7591	34.84
30.7693	35.96
30.7795	34.93
30.7896	35.88
30.7998	36.20
30.81	34.97
30.8201	35.57
30.8303	36.29
30.8405	35.49
30.8506	35.16
30.8608	35.91
30.871	35.18
30.8811	35.11
30.8913	35.63
30.9014	34.79
30.9116	34.73
30.9218	34.48
30.9319	34.31
30.9421	34.79
30.9523	35.46
30.9624	33.74
30.9726	34.67
30.9828	34.12
30.9929	34.43
31.0031	33.70
31.0133	34.09
31.0234	34.51
31.0336	34.32
31.0437	34.73
31.0539	33.87
31.0641	33.99
31.0742	34.41
31.0844	34.62
31.0946	33.66
31.1047	33.68
31.1149	33.68
31.1251	33.76
31.1352	34.34
31.1454	33.54
31.1556	33.40
31.1657	33.96
31.1759	34.65
31.186	33.77
31.1962	33.62
31.2064	32.30
31.2165	32.99
31.2267	33.59
31.2369	33.32
31.247	33.28
31.2572	33.96
31.2674	32.67
31.2775	32.97
31.2877	32.77
31.2979	32.98
31.308	33.48
31.3182	33.32
31.3284	33.13
31.3385	32.62
31.3487	33.84
31.3588	32.26
31.369	33.00
31.3792	33.51
31.3893	32.68
31.3995	32.56
31.4097	33.24
31.4198	32.96
31.43	32.59
31.4402	32.95
31.4503	32.93
31.4605	32.49
31.4707	32.74
31.4808	32.58
31.491	32.81
31.5011	32.40
31.5113	32.17
31.5215	33.41
31.5316	32.90
31.5418	32.86
31.552	32.43
31.5621	33.95
31.5723	32.45
31.5825	33.16
31.5926	32.18
31.6028	32.95
31.613	32.46
31.6231	32.30
31.6333	31.90
31.6435	32.38
31.6536	32.60
31.6638	32.01
31.6739	32.66
31.6841	32.75
31.6943	32.09
31.7044	32.51
31.7146	33.43
31.7248	32.95
31.7349	32.18
31.7451	32.59
31.7553	31.96
31.7654	32.25
31.7756	32.99
31.7858	32.26
31.7959	32.08
31.8061	33.21
31.8162	32.39
31.8264	32.89
31.8366	33.99
31.8467	33.21
31.8569	31.38
31.8671	33.23
31.8772	32.18
31.8874	32.55
31.8976	32.49
31.9077	32.73
31.9179	32.29
31.9281	32.80
31.9382	33.05
31.9484	31.96
31.9586	32.19
31.9687	31.83
31.9789	32.32
31.989	33.33
31.9992	32.31
32.0094	32.38
32.0195	32.29
32.0297	31.90
32.0399	32.52
32.05	33.28
32.0602	31.95
32.0704	32.98
32.0805	32.86
32.0907	32.27
32.1009	32.80
32.111	32.95
32.1212	31.60
32.1313	33.12
32.1415	33.48
32.1517	32.95
32.1618	32.96
32.172	33.35
32.1822	33.23
32.1923	32.38
32.2025	33.55
32.2127	32.49
32.2228	33.20
32.233	32.65
32.2432	33.26
32.2533	33.81
32.2635	33.29
32.2737	32.67
32.2838	33.05
32.294	32.55
32.3041	32.69
32.3143	33.05
32.3245	33.21
32.3346	32.74
32.3448	32.66
32.355	32.90
32.3651	32.72
32.3753	33.07
32.3855	33.23
32.3956	32.63
32.4058	32.57
32.416	33.56
32.4261	33.18
32.4363	33.93
32.4464	32.97
32.4566	32.99
32.4668	33.10
32.4769	33.23
32.4871	33.69
32.4973	33.16
32.5074	34.48
32.5176	33.18
32.5278	32.55
32.5379	32.92
32.5481	32.86
32.5583	32.91
32.5684	33.24
32.5786	32.59
32.5888	33.42
32.5989	33.14
32.6091	33.21
32.6192	33.16
32.6294	32.96
32.6396	33.14
32.6497	33.45
32.6599	32.16
32.6701	32.54
32.6802	33.65
32.6904	32.69
32.7006	32.41
32.7107	32.40
32.7209	33.49
32.7311	32.37
32.7412	33.27
32.7514	32.65
32.7615	32.96
32.7717	32.54
32.7819	33.35
32.792	32.63
32.8022	32.89
32.8124	32.74
32.8225	32.87
32.8327	32.61
32.8429	32.46
32.853	32.30
32.8632	34.38
32.8734	32.32
32.8835	33.01
32.8937	33.27
32.9039	32.74
32.914	32.68
32.9242	32.53
32.9343	32.98
32.9445	31.74
32.9547	32.73
32.9648	32.79
32.975	32.31
32.9852	32.89
32.9953	32.63
33.0055	32.52
33.0157	33.51
33.0258	33.78
33.036	32.99
33.0462	32.70
33.0563	33.71
33.0665	32.94
33.0766	32.84
33.0868	32.63
33.097	33.18
33.1071	32.45
33.1173	33.13
33.1275	32.84
33.1376	32.69
33.1478	33.85
33.158	34.32
33.1681	32.56
33.1783	33.05
33.1885	32.29
33.1986	33.57
33.2088	33.70
33.2189	33.94
33.2291	32.33
33.2393	33.51
33.2494	33.01
33.2596	33.54
33.2698	33.21
33.2799	32.40
33.2901	32.89
33.3003	33.36
33.3104	33.01
33.3206	33.37
33.3308	33.32
33.3409	33.26
33.3511	32.81
33.3613	33.20
33.3714	33.01
33.3816	33.80
33.3917	33.26
33.4019	33.74
33.4121	33.46
33.4222	33.05
33.4324	32.99
33.4426	32.90
33.4527	32.70
33.4629	33.16
33.4731	32.95
33.4832	32.23
33.4934	32.10
33.5036	32.69
33.5137	32.41
33.5239	32.22
33.534	32.33
33.5442	31.91
33.5544	31.97
33.5645	32.49
33.5747	32.71
33.5849	31.72
33.595	32.09
33.6052	31.69
33.6154	31.65
33.6255	31.38
33.6357	30.85
33.6459	31.89
33.656	31.48
33.6662	31.59
33.6764	31.32
33.6865	31.38
33.6967	30.20
33.7068	31.20
33.717	30.87
33.7272	30.45
33.7373	30.84
33.7475	30.48
33.7577	30.22
33.7678	30.21
33.778	30.13
33.7882	30.30
33.7983	29.10
33.8085	29.58
33.8187	29.15
33.8288	29.57
33.839	29.28
33.8491	29.77
33.8593	29.15
33.8695	28.56
33.8796	29.39
33.8898	28.73
33.9	28.90
33.9101	29.05
33.9203	29.44
33.9305	29.09
33.9406	28.27
33.9508	28.90
33.961	28.71
33.9711	28.84
33.9813	28.95
33.9915	28.33
34.0016	28.23
34.0118	28.27
34.0219	28.01
34.0321	27.17
34.0423	28.33
34.0524	27.95
34.0626	27.80
34.0728	28.11
34.0829	27.74
34.0931	27.87
34.1033	27.32
34.1134	27.86
34.1236	28.09
34.1338	28.05
34.1439	27.01
34.1541	27.42
34.1642	26.82
34.1744	27.82
34.1846	28.01
34.1947	27.48
34.2049	27.60
34.2151	27.70
34.2252	27.55
34.2354	26.76
34.2456	27.31
34.2557	25.75
34.2659	27.23
34.2761	27.34
34.2862	26.79
34.2964	27.96
34.3066	26.45
34.3167	26.88
34.3269	26.23
34.337	27.04
34.3472	27.15
34.3574	26.52
34.3675	26.96
34.3777	25.93
34.3879	25.76
34.398	26.06
34.4082	26.00
34.4184	26.49
34.4285	26.70
34.4387	25.83
34.4489	25.93
34.459	26.46
34.4692	26.20
34.4793	25.96
34.4895	26.51
34.4997	25.56
34.5098	26.34
34.52	26.16
34.5302	25.48
34.5403	25.62
34.5505	26.57
34.5607	26.27
34.5708	26.20
34.581	25.55
34.5912	25.65
34.6013	26.07
34.6115	25.34
34.6217	25.58
34.6318	25.52
34.642	25.80
34.6521	25.58
34.6623	25.90
34.6725	26.06
34.6826	26.57
34.6928	25.14
34.703	25.41
34.7131	25.97
34.7233	25.29
34.7335	26.37
34.7436	25.67
34.7538	25.84
34.764	25.41
34.7741	26.27
34.7843	25.98
34.7944	25.73
34.8046	25.36
34.8148	25.90
34.8249	25.62
34.8351	25.91
34.8453	25.17
34.8554	26.03
34.8656	25.64
34.8758	25.85
34.8859	25.45
34.8961	26.36
34.9063	25.82
34.9164	24.68
34.9266	25.63
34.9367	25.73
34.9469	25.21
34.9571	25.95
34.9672	24.79
34.9774	25.18
34.9876	25.22
34.9977	25.23
35.0079	25.38
35.0181	25.19
35.0282	25.16
35.0384	25.77
35.0486	25.67
35.0587	24.98
35.0689	25.15
35.0791	24.70
35.0892	25.59
35.0994	25.13
35.1095	25.51
35.1197	25.77
35.1299	25.15
35.14	25.69
35.1502	25.30
35.1604	25.18
35.1705	25.28
35.1807	25.08
35.1909	24.96
35.201	25.23
35.2112	24.99
35.2214	26.27
35.2315	24.66
35.2417	24.84
35.2518	25.16
35.262	24.85
35.2722	24.63
35.2823	25.13
35.2925	25.01
35.3027	25.32
35.3128	24.90
35.323	24.96
35.3332	24.70
35.3433	25.65
35.3535	24.88
35.3637	25.09
35.3738	24.34
35.384	25.13
35.3942	24.77
35.4043	24.65
35.4145	25.01
35.4246	24.60
35.4348	24.57
35.445	24.22
35.4551	24.62
35.4653	24.48
35.4755	24.37
35.4856	23.95
35.4958	24.30
35.506	24.83
35.5161	24.52
35.5263	24.62
35.5365	24.38
35.5466	24.10
35.5568	24.54
35.5669	24.23
35.5771	24.66
35.5873	24.66
35.5974	24.55
35.6076	25.00
35.6178	24.05
35.6279	24.66
35.6381	24.48
35.6483	24.80
35.6584	24.65
35.6686	24.81
35.6788	24.86
35.6889	24.73
35.6991	24.35
35.7093	24.54
35.7194	23.90
35.7296	24.46
35.7397	24.16
35.7499	24.41
35.7601	24.98
35.7702	24.05
35.7804	24.90
35.7906	24.31
35.8007	25.00
35.8109	24.73
35.8211	24.38
35.8312	24.96
35.8414	24.91
35.8516	24.66
35.8617	23.78
35.8719	24.24
35.882	24.34
35.8922	24.82
35.9024	24.30
35.9125	24.07
35.9227	23.93
35.9329	24.80
35.943	24.54
35.9532	24.88
35.9634	24.52
35.9735	24.09
35.9837	24.15
35.9939	24.21
36.004	24.83
36.0142	23.84
36.0244	23.93
36.0345	23.95
36.0447	25.08
36.0548	23.58
36.065	24.05
36.0752	24.20
36.0853	24.30
36.0955	24.67
36.1057	24.32
36.1158	24.46
36.126	24.18
36.1362	24.64
36.1463	23.73
36.1565	24.86
36.1667	24.70
36.1768	24.00
36.187	24.14
36.1971	24.87
36.2073	24.80
36.2175	24.49
36.2276	24.76
36.2378	24.66
36.248	24.35
36.2581	24.44
36.2683	24.96
36.2785	24.44
36.2886	24.08
36.2988	24.52
36.309	24.35
36.3191	24.24
36.3293	24.45
36.3395	23.92
36.3496	25.11
36.3598	23.94
36.3699	23.90
36.3801	24.16
36.3903	24.85
36.4004	23.99
36.4106	24.18
36.4208	24.74
36.4309	24.62
36.4411	25.20
36.4513	24.58
36.4614	24.62
36.4716	24.46
36.4818	24.32
36.4919	24.53
36.5021	24.88
36.5122	24.79
36.5224	24.35
36.5326	24.13
36.5427	24.84
36.5529	24.76
36.5631	24.65
36.5732	24.83
36.5834	24.63
36.5936	24.05
36.6037	24.95
36.6139	24.51
36.6241	25.41
36.6342	25.18
36.6444	24.43
36.6546	24.09
36.6647	23.95
36.6749	24.33
36.685	24.33
36.6952	24.25
36.7054	24.43
36.7155	24.98
36.7257	25.99
36.7359	23.98
36.746	24.35
36.7562	25.29
36.7664	25.15
36.7765	25.41
36.7867	25.52
36.7969	24.89
36.807	25.19
36.8172	25.03
36.8273	25.04
36.8375	25.27
36.8477	25.22
36.8578	24.42
36.868	24.88
36.8782	24.68
36.8883	25.29
36.8985	25.38
36.9087	25.34
36.9188	23.98
36.929	24.65
36.9392	25.07
36.9493	25.27
36.9595	25.51
36.9696	25.36
36.9798	24.82
36.99	24.57
37.0001	24.87
37.0103	24.88
37.0205	24.90
37.0306	25.66
37.0408	25.23
37.051	24.90
37.0611	25.76
37.0713	25.25
37.0815	25.43
37.0916	25.41
37.1018	25.68
37.112	26.04
37.1221	25.32
37.1323	25.91
37.1424	24.76
37.1526	26.12
37.1628	26.02
37.1729	26.52
37.1831	25.62
37.1933	25.94
37.2034	25.07
37.2136	25.71
37.2238	25.41
37.2339	25.20
37.2441	25.91
37.2543	25.85
37.2644	26.04
37.2746	25.91
37.2847	26.54
37.2949	25.85
37.3051	25.91
37.3152	25.91
37.3254	26.34
37.3356	25.79
37.3457	26.67
37.3559	26.01
37.3661	25.72
37.3762	26.28
37.3864	25.10
37.3966	26.13
37.4067	25.59
37.4169	26.67
37.4271	26.07
37.4372	25.93
37.4474	25.92
37.4575	26.30
37.4677	26.42
37.4779	25.88
37.488	26.34
37.4982	26.54
37.5084	25.98
37.5185	27.01
37.5287	26.48
37.5389	26.47
37.549	27.37
37.5592	27.42
37.5694	26.62
37.5795	27.15
37.5897	27.20
37.5998	26.51
37.61	27.49
37.6202	26.99
37.6303	26.93
37.6405	27.61
37.6507	27.36
37.6608	27.29
37.671	27.19
37.6812	26.74
37.6913	27.60
37.7015	27.99
37.7117	27.33
37.7218	27.01
37.732	27.41
37.7422	27.85
37.7523	27.67
37.7625	27.74
37.7726	27.68
37.7828	27.76
37.793	27.84
37.8031	28.11
37.8133	27.96
37.8235	28.26
37.8336	27.36
37.8438	28.33
37.854	27.87
37.8641	28.07
37.8743	27.03
37.8845	27.90
37.8946	28.55
37.9048	27.71
37.9149	28.66
37.9251	28.45
37.9353	28.27
37.9454	28.92
37.9556	28.59
37.9658	28.38
37.9759	28.14
37.9861	29.05
37.9963	29.16
38.0064	29.14
38.0166	29.64
38.0268	28.60
38.0369	29.65
38.0471	29.48
38.0573	28.76
38.0674	30.09
38.0776	28.54
38.0877	29.07
38.0979	29.27
38.1081	29.11
38.1182	29.80
38.1284	29.65
38.1386	29.95
38.1487	30.48
38.1589	30.00
38.1691	28.55
38.1792	30.39
38.1894	29.30
38.1996	29.29
38.2097	29.83
38.2199	29.79
38.23	29.84
38.2402	30.80
38.2504	30.34
38.2605	30.03
38.2707	31.04
38.2809	30.72
38.291	30.13
38.3012	30.92
38.3114	30.52
38.3215	30.88
38.3317	29.73
38.3419	30.48
38.352	30.61
38.3622	31.38
38.3724	31.29
38.3825	30.30
38.3927	30.68
38.4028	31.43
38.413	31.15
38.4232	30.68
38.4333	31.41
38.4435	30.80
38.4537	30.43
38.4638	30.80
38.474	31.20
38.4842	31.54
38.4943	31.55
38.5045	30.90
38.5147	31.27
38.5248	31.08
38.535	30.67
38.5451	30.99
38.5553	30.95
38.5655	31.16
38.5756	30.45
38.5858	31.12
38.596	30.23
38.6061	31.77
38.6163	30.60
38.6265	31.17
38.6366	31.33
38.6468	31.04
38.657	30.88
38.6671	31.68
38.6773	31.28
38.6875	31.43
38.6976	31.51
38.7078	31.24
38.7179	31.08
38.7281	30.56
38.7383	30.79
38.7484	30.97
38.7586	30.32
38.7688	30.66
38.7789	30.80
38.7891	30.78
38.7993	31.37
38.8094	30.60
38.8196	30.72
38.8298	30.45
38.8399	29.54
38.8501	30.46
38.8602	30.23
38.8704	30.40
38.8806	29.99
38.8907	29.60
38.9009	29.74
38.9111	30.20
38.9212	29.86
38.9314	30.18
38.9416	30.09
38.9517	30.40
38.9619	29.71
38.9721	30.40
38.9822	30.02
38.9924	30.51
39.0025	30.49
39.0127	28.76
39.0229	29.99
39.033	29.87
39.0432	29.79
39.0534	29.84
39.0635	29.10
39.0737	29.80
39.0839	29.29
39.094	29.51
39.1042	30.12
39.1144	29.63
39.1245	30.20
39.1347	30.39
39.1449	28.89
39.155	28.65
39.1652	29.63
39.1753	29.23
39.1855	28.79
39.1957	29.13
39.2058	29.46
39.216	28.25
39.2262	29.27
39.2363	28.90
39.2465	28.95
39.2567	28.60
39.2668	28.21
39.277	28.65
39.2872	28.10
39.2973	28.60
39.3075	27.96
39.3176	28.17
39.3278	27.77
39.338	27.73
39.3481	28.13
39.3583	27.52
39.3685	28.19
39.3786	28.33
39.3888	28.12
39.399	27.98
39.4091	27.12
39.4193	27.49
39.4295	27.65
39.4396	27.46
39.4498	26.95
39.46	27.15
39.4701	27.26
39.4803	27.55
39.4904	26.68
39.5006	27.12
39.5108	26.86
39.5209	27.56
39.5311	27.90
39.5413	26.75
39.5514	27.52
39.5616	26.66
39.5718	26.69
39.5819	26.32
39.5921	26.37
39.6023	26.69
39.6124	26.99
39.6226	26.38
39.6327	26.57
39.6429	26.48
39.6531	25.74
39.6632	26.31
39.6734	26.22
39.6836	26.07
39.6937	26.29
39.7039	25.65
39.7141	25.88
39.7242	26.61
39.7344	26.53
39.7446	26.59
39.7547	25.90
39.7649	25.51
39.7751	25.63
39.7852	26.87
39.7954	26.04
39.8055	24.76
39.8157	26.04
39.8259	25.79
39.836	26.20
39.8462	26.54
39.8564	26.32
39.8665	25.70
39.8767	25.27
39.8869	25.91
39.897	26.23
39.9072	26.18
39.9174	25.04
39.9275	26.01
39.9377	25.27
39.9478	26.16
39.958	25.71
39.9682	25.96
39.9783	25.62
39.9885	25.40
39.9987	26.09
40.0088	25.88
