5.0023	52.57
5.0125	52.87
5.0226	52.17
5.0328	50.97
5.043	49.99
5.0531	49.01
5.0633	48.97
5.0735	48.48
5.0836	47.32
5.0938	46.60
5.1039	46.48
5.1141	45.43
5.1243	45.30
5.1344	43.68
5.1446	43.76
5.1548	42.93
5.1649	43.25
5.1751	41.70
5.1853	41.03
5.1954	41.91
5.2056	40.60
5.2158	39.24
5.2259	39.97
5.2361	39.12
5.2462	38.05
5.2564	38.02
5.2666	37.20
5.2767	36.71
5.2869	35.58
5.2971	36.95
5.3072	34.93
5.3174	35.93
5.3276	34.66
5.3377	34.02
5.3479	34.66
5.3581	34.08
5.3682	34.01
5.3784	32.38
5.3886	32.88
5.3987	32.91
5.4089	32.02
5.419	32.25
5.4292	31.85
5.4394	32.06
5.4495	31.95
5.4597	31.34
5.4699	31.35
5.48	30.61
5.4902	29.96
5.5004	30.19
5.5105	30.42
5.5207	29.02
5.5309	28.93
5.541	28.29
5.5512	28.72
5.5613	29.12
5.5715	28.38
5.5817	27.36
5.5918	27.70
5.602	28.44
5.6122	27.27
5.6223	27.07
5.6325	27.17
5.6427	27.16
5.6528	26.74
5.663	27.01
5.6732	26.30
5.6833	26.56
5.6935	26.91
5.7036	25.03
5.7138	25.48
5.724	25.90
5.7341	24.68
5.7443	25.31
5.7545	25.09
5.7646	25.12
5.7748	24.54
5.785	25.24
5.7951	24.84
5.8053	25.20
5.8155	24.89
5.8256	24.35
5.8358	24.84
5.846	23.95
5.8561	24.74
5.8663	25.43
5.8764	24.45
5.8866	24.84
5.8968	24.60
5.9069	24.03
5.9171	23.46
5.9273	24.62
5.9374	24.98
5.9476	24.02
5.9578	23.63
5.9679	23.81
5.9781	23.77
5.9883	24.04
5.9984	24.24
6.0086	23.45
6.0187	23.83
6.0289	23.51
6.0391	24.24
6.0492	23.42
6.0594	23.77
6.0696	23.80
6.0797	23.76
6.0899	23.19
6.1001	23.37
6.1102	23.27
6.1204	23.74
6.1306	23.32
6.1407	23.32
6.1509	23.43
6.1611	23.74
6.1712	23.07
6.1814	23.51
6.1915	23.82
6.2017	23.46
6.2119	23.48
6.222	22.71
6.2322	22.30
6.2424	22.59
6.2525	23.72
6.2627	22.76
6.2729	23.11
6.283	23.68
6.2932	23.45
6.3034	23.94
6.3135	23.26
6.3237	23.54
6.3338	23.20
6.344	23.09
6.3542	23.37
6.3643	23.68
6.3745	22.82
6.3847	23.05
6.3948	23.02
6.405	23.20
6.4152	22.73
6.4253	23.34
6.4355	23.07
6.4457	23.01
6.4558	23.56
6.466	22.82
6.4762	22.78
6.4863	22.82
6.4965	23.57
6.5066	23.40
6.5168	23.19
6.527	23.27
6.5371	23.17
6.5473	23.18
6.5575	23.58
6.5676	22.87
6.5778	22.98
6.588	23.36
6.5981	22.32
6.6083	23.67
6.6185	23.23
6.6286	23.06
6.6388	23.57
6.6489	23.18
6.6591	23.32
6.6693	23.27
6.6794	23.01
6.6896	22.98
6.6998	22.93
6.7099	23.57
6.7201	22.88
6.7303	23.83
6.7404	23.37
6.7506	23.99
6.7608	23.32
6.7709	23.54
6.7811	22.93
6.7913	23.21
6.8014	23.56
6.8116	22.84
6.8217	22.93
6.8319	24.07
6.8421	23.24
6.8522	22.91
6.8624	23.30
6.8726	23.34
6.8827	23.11
6.8929	24.01
6.9031	23.16
6.9132	24.68
6.9234	22.57
6.9336	23.16
6.9437	23.23
6.9539	23.60
6.964	23.40
6.9742	24.40
6.9844	24.56
6.9945	23.62
7.0047	23.62
7.0149	24.60
7.025	23.36
7.0352	24.16
7.0454	23.89
7.0555	24.01
7.0657	23.23
7.0759	23.46
7.086	23.52
7.0962	24.30
7.1064	24.47
7.1165	23.27
7.1267	23.59
7.1368	24.96
7.147	23.48
7.1572	23.88
7.1673	23.84
7.1775	23.70
7.1877	23.81
7.1978	24.24
7.208	24.14
7.2182	23.96
7.2283	24.28
7.2385	23.18
7.2487	24.39
7.2588	24.84
7.269	24.45
7.2791	24.11
7.2893	24.26
7.2995	23.08
7.3096	24.50
7.3198	24.51
7.33	23.84
7.3401	24.83
7.3503	25.02
7.3605	23.55
7.3706	24.82
7.3808	24.80
7.391	24.67
7.4011	24.03
7.4113	25.22
7.4215	24.45
7.4316	24.07
7.4418	23.93
7.4519	24.24
7.4621	24.63
7.4723	23.95
7.4824	25.19
7.4926	24.51
7.5028	25.25
7.5129	25.15
7.5231	25.54
7.5333	24.73
7.5434	24.52
7.5536	24.88
7.5638	25.63
7.5739	25.44
7.5841	25.05
7.5942	25.15
7.6044	25.15
7.6146	24.87
7.6247	25.65
7.6349	24.97
7.6451	24.62
7.6552	24.60
7.6654	25.07
7.6756	24.87
7.6857	24.01
7.6959	25.01
7.7061	25.11
7.7162	25.22
7.7264	24.79
7.7365	25.11
7.7467	25.46
7.7569	25.16
7.767	25.05
7.7772	25.48
7.7874	24.48
7.7975	24.96
7.8077	25.23
7.8179	25.54
7.828	24.94
7.8382	25.87
7.8484	25.08
7.8585	25.62
7.8687	25.20
7.8789	25.75
7.889	25.70
7.8992	25.41
7.9093	25.83
7.9195	25.76
7.9297	25.78
7.9398	25.67
7.95	26.50
7.9602	25.79
7.9703	26.16
7.9805	25.71
7.9907	26.70
8.0008	25.79
8.011	25.24
8.0212	26.76
8.0313	26.51
8.0415	26.13
8.0516	26.47
8.0618	26.25
8.072	27.31
8.0821	25.99
8.0923	26.10
8.1025	25.91
8.1126	26.33
8.1228	26.52
8.133	25.82
8.1431	26.32
8.1533	26.56
8.1635	26.27
8.1736	25.93
8.1838	26.14
8.194	25.77
8.2041	26.90
8.2143	26.76
8.2244	26.95
8.2346	26.97
8.2448	26.51
8.2549	26.02
8.2651	27.48
8.2753	26.77
8.2854	27.10
8.2956	27.42
8.3058	26.66
8.3159	27.38
8.3261	26.48
8.3363	27.32
8.3464	27.02
8.3566	26.70
8.3667	27.54
8.3769	26.68
8.3871	26.51
8.3972	26.30
8.4074	26.78
8.4176	26.58
8.4277	26.46
8.4379	27.23
8.4481	27.15
8.4582	26.48
8.4684	26.54
8.4786	27.90
8.4887	27.24
8.4989	26.94
8.5091	27.61
8.5192	26.68
8.5294	27.49
8.5395	27.98
8.5497	27.32
8.5599	27.44
8.57	28.07
8.5802	27.46
8.5904	26.91
8.6005	26.96
8.6107	27.63
8.6209	27.51
8.631	27.81
8.6412	27.91
8.6514	27.68
8.6615	28.30
8.6717	27.12
8.6818	27.39
8.692	27.22
8.7022	28.00
8.7123	27.84
8.7225	27.57
8.7327	27.84
8.7428	28.99
8.753	27.15
8.7632	27.67
8.7733	28.15
8.7835	27.66
8.7937	27.21
8.8038	27.96
8.814	28.70
8.8242	27.78
8.8343	27.50
8.8445	27.97
8.8546	28.38
8.8648	27.59
8.875	28.38
8.8851	28.35
8.8953	28.57
8.9055	29.04
8.9156	28.29
8.9258	28.57
8.936	28.01
8.9461	28.40
8.9563	28.16
8.9665	28.35
8.9766	28.40
8.9868	29.10
8.9969	29.51
9.0071	27.83
9.0173	29.90
9.0274	29.44
9.0376	27.68
9.0478	29.10
9.0579	29.10
9.0681	29.10
9.0783	28.95
9.0884	29.30
9.0986	27.91
9.1088	29.66
9.1189	28.67
9.1291	28.79
9.1393	28.97
9.1494	29.12
9.1596	29.05
9.1697	28.91
9.1799	29.22
9.1901	28.71
9.2002	29.48
9.2104	29.14
9.2206	28.27
9.2307	29.45
9.2409	29.74
9.2511	29.04
9.2612	29.59
9.2714	29.31
9.2816	28.70
9.2917	29.30
9.3019	29.20
9.312	28.71
9.3222	29.87
9.3324	29.01
9.3425	29.41
9.3527	28.85
9.3629	29.46
9.373	29.73
9.3832	29.54
9.3934	29.70
9.4035	29.25
9.4137	29.70
9.4239	29.18
9.434	29.79
9.4442	29.26
9.4544	30.65
9.4645	29.26
9.4747	29.46
9.4848	30.37
9.495	28.90
9.5052	29.98
9.5153	30.27
9.5255	29.90
9.5357	29.89
9.5458	30.04
9.556	29.41
9.5662	29.96
9.5763	30.26
9.5865	29.30
9.5967	30.51
9.6068	30.76
9.617	29.89
9.6271	30.70
9.6373	30.15
9.6475	29.76
9.6576	30.38
9.6678	29.52
9.678	30.29
9.6881	30.33
9.6983	30.10
9.7085	29.68
9.7186	29.95
9.7288	30.57
9.739	29.99
9.7491	30.21
9.7593	29.88
9.7694	29.95
9.7796	30.35
9.7898	30.72
9.7999	30.83
9.8101	30.55
9.8203	30.50
9.8304	29.82
9.8406	31.03
9.8508	30.82
9.8609	30.70
9.8711	31.08
9.8813	30.65
9.8914	29.92
9.9016	31.79
9.9118	31.80
9.9219	30.93
9.9321	30.81
9.9422	30.95
9.9524	31.06
9.9626	31.06
9.9727	31.20
9.9829	30.91
9.9931	30.99
10.0032	30.45
10.0134	31.35
10.0236	31.05
10.0337	30.65
10.0439	31.18
10.0541	31.50
10.0642	31.58
10.0744	31.02
10.0845	31.04
10.0947	30.68
10.1049	31.06
10.115	31.43
10.1252	32.10
10.1354	30.75
10.1455	31.22
10.1557	30.95
10.1659	31.07
10.176	32.34
10.1862	31.94
10.1964	31.41
10.2065	31.59
10.2167	32.46
10.2269	32.49
10.237	32.02
10.2472	32.13
10.2573	31.76
10.2675	31.44
10.2777	31.61
10.2878	31.55
10.298	32.65
10.3082	32.51
10.3183	32.33
10.3285	31.98
10.3387	32.09
10.3488	32.32
10.359	30.57
10.3692	31.76
10.3793	31.76
10.3895	32.04
10.3996	31.72
10.4098	31.24
10.42	31.74
10.4301	31.49
10.4403	31.75
10.4505	31.84
10.4606	31.72
10.4708	32.96
10.481	32.24
10.4911	32.35
10.5013	32.54
10.5115	31.80
10.5216	31.76
10.5318	31.72
10.542	32.45
10.5521	31.65
10.5623	31.88
10.5724	31.64
10.5826	32.47
10.5928	32.23
10.6029	32.49
10.6131	33.19
10.6233	32.44
10.6334	32.59
10.6436	33.44
10.6538	33.56
10.6639	33.13
10.6741	32.04
10.6843	33.18
10.6944	32.91
10.7046	32.65
10.7147	33.36
10.7249	33.96
10.7351	33.83
10.7452	33.12
10.7554	33.12
10.7656	32.75
10.7757	33.32
10.7859	33.26
10.7961	32.16
10.8062	33.59
10.8164	33.79
10.8266	33.36
10.8367	32.90
10.8469	33.36
10.8571	34.15
10.8672	33.61
10.8774	33.26
10.8875	32.80
10.8977	33.38
10.9079	33.60
10.918	33.80
10.9282	33.90
10.9384	33.57
10.9485	33.13
10.9587	33.62
10.9689	32.91
10.979	33.96
10.9892	34.13
10.9994	33.90
11.0095	34.48
11.0197	33.80
11.0298	34.04
11.04	34.31
11.0502	33.47
11.0603	33.36
11.0705	33.55
11.0807	34.53
11.0908	34.12
11.101	33.30
11.1112	34.02
11.1213	34.95
11.1315	33.71
11.1417	33.46
11.1518	34.75
11.162	34.63
11.1722	33.90
11.1823	34.43
11.1925	34.66
11.2026	35.20
11.2128	34.98
11.223	33.68
11.2331	34.67
11.2433	35.00
11.2535	34.56
11.2636	34.78
11.2738	35.73
11.284	35.30
11.2941	35.91
11.3043	35.15
11.3145	34.74
11.3246	35.46
11.3348	34.35
11.3449	35.26
11.3551	34.57
11.3653	34.63
11.3754	35.43
11.3856	35.71
11.3958	34.86
11.4059	34.22
11.4161	35.60
11.4263	35.20
11.4364	34.36
11.4466	34.99
11.4568	34.80
11.4669	34.96
11.4771	34.50
11.4873	35.50
11.4974	36.00
11.5076	35.56
11.5177	36.18
11.5279	36.05
11.5381	35.76
11.5482	35.15
11.5584	35.46
11.5686	35.27
11.5787	34.92
11.5889	35.34
11.5991	35.52
11.6092	35.36
11.6194	36.23
11.6296	37.00
11.6397	36.01
11.6499	35.70
11.66	35.87
11.6702	35.94
11.6804	36.15
11.6905	36.49
11.7007	36.67
11.7109	35.78
11.721	35.65
11.7312	35.85
11.7414	35.29
11.7515	36.59
11.7617	36.23
11.7719	36.69
11.782	36.57
11.7922	37.14
11.8023	36.09
11.8125	36.22
11.8227	36.52
11.8328	37.04
11.843	37.32
11.8532	36.31
11.8633	36.71
11.8735	37.62
11.8837	36.83
11.8938	36.81
11.904	37.00
11.9142	37.59
11.9243	37.11
11.9345	36.82
11.9447	36.47
11.9548	37.30
11.965	37.54
11.9751	37.92
11.9853	37.01
11.9955	36.62
12.0056	38.36
12.0158	37.34
12.026	37.00
12.0361	39.09
12.0463	37.38
12.0565	38.07
12.0666	37.70
12.0768	37.84
12.087	37.78
12.0971	38.12
12.1073	37.88
12.1174	37.96
12.1276	38.91
12.1378	37.28
12.1479	38.68
12.1581	38.88
12.1683	38.31
12.1784	37.58
12.1886	38.75
12.1988	37.60
12.2089	39.09
12.2191	39.86
12.2293	38.63
12.2394	38.27
12.2496	39.12
12.2598	38.90
12.2699	38.87
12.2801	38.34
12.2902	39.26
12.3004	38.04
12.3106	39.59
12.3207	39.10
12.3309	39.13
12.3411	38.96
12.3512	38.12
12.3614	38.14
12.3716	39.49
12.3817	39.36
12.3919	39.29
12.4021	40.41
12.4122	40.24
12.4224	39.62
12.4325	39.74
12.4427	39.93
12.4529	39.46
12.463	38.79
12.4732	38.95
12.4834	39.29
12.4935	40.26
12.5037	40.34
12.5139	40.67
12.524	40.12
12.5342	38.82
12.5444	40.13
12.5545	39.85
12.5647	40.27
12.5749	40.04
12.585	40.33
12.5952	40.65
12.6053	41.00
12.6155	40.63
12.6257	40.62
12.6358	40.50
12.646	39.36
12.6562	40.81
12.6663	40.75
12.6765	40.47
12.6867	40.09
12.6968	39.54
12.707	40.95
12.7172	41.13
12.7273	40.45
12.7375	40.67
12.7476	40.84
12.7578	40.45
12.768	41.07
12.7781	41.54
12.7883	40.95
12.7985	40.98
12.8086	41.98
12.8188	41.51
12.829	41.68
12.8391	42.36
12.8493	42.23
12.8595	41.51
12.8696	41.52
12.8798	42.04
12.89	42.06
12.9001	42.15
12.9103	41.96
12.9204	42.16
12.9306	42.99
12.9408	42.48
12.9509	42.77
12.9611	42.05
12.9713	43.32
12.9814	41.90
12.9916	42.48
13.0018	43.67
13.0119	41.66
13.0221	42.84
13.0323	42.98
13.0424	43.15
13.0526	43.16
13.0627	43.86
13.0729	43.91
13.0831	43.08
13.0932	43.00
13.1034	43.81
13.1136	43.32
13.1237	43.65
13.1339	44.06
13.1441	42.97
13.1542	43.46
13.1644	43.97
13.1746	44.47
13.1847	44.07
13.1949	43.77
13.2051	44.80
13.2152	43.77
13.2254	44.87
13.2355	45.05
13.2457	44.60
13.2559	44.25
13.266	45.07
13.2762	44.10
13.2864	43.85
13.2965	44.93
13.3067	44.43
13.3169	45.15
13.327	43.90
13.3372	44.29
13.3474	45.66
13.3575	45.42
13.3677	44.73
13.3778	45.45
13.388	44.60
13.3982	46.28
13.4083	45.14
13.4185	45.60
13.4287	45.59
13.4388	46.32
13.449	45.10
13.4592	45.82
13.4693	46.47
13.4795	46.53
13.4897	46.34
13.4998	46.28
13.51	46.47
13.5201	46.08
13.5303	47.38
13.5405	47.10
13.5506	47.00
13.5608	47.38
13.571	47.16
13.5811	46.90
13.5913	46.53
13.6015	46.40
13.6116	48.13
13.6218	47.28
13.632	47.25
13.6421	47.71
13.6523	47.32
13.6625	46.82
13.6726	47.91
13.6828	48.29
13.6929	48.16
13.7031	48.32
13.7133	48.54
13.7234	48.24
13.7336	49.05
13.7438	47.77
13.7539	47.95
13.7641	48.59
13.7743	49.12
13.7844	48.07
13.7946	49.51
13.8048	49.47
13.8149	48.40
13.8251	48.78
13.8352	50.46
13.8454	48.64
13.8556	49.02
13.8657	49.65
13.8759	50.03
13.8861	49.14
13.8962	50.90
13.9064	49.53
13.9166	50.54
13.9267	49.34
13.9369	50.77
13.9471	49.96
13.9572	51.06
13.9674	50.52
13.9776	50.48
13.9877	50.35
13.9979	50.14
14.008	50.59
14.0182	50.98
14.0284	51.54
14.0385	51.40
14.0487	51.19
14.0589	51.37
14.069	51.13
14.0792	51.90
14.0894	51.13
14.0995	50.56
14.1097	52.40
14.1199	51.82
14.13	51.78
14.1402	52.97
14.1503	51.72
14.1605	52.04
14.1707	52.72
14.1808	51.15
14.191	53.16
14.2012	53.18
14.2113	52.66
14.2215	52.78
14.2317	52.48
14.2418	53.21
14.252	53.96
14.2622	51.96
14.2723	53.75
14.2825	54.91
14.2927	53.64
14.3028	54.04
14.313	54.24
14.3231	53.60
14.3333	54.09
14.3435	55.75
14.3536	53.92
14.3638	54.34
14.374	54.24
14.3841	55.77
14.3943	54.77
14.4045	54.70
14.4146	55.44
14.4248	54.88
14.435	55.64
14.4451	54.71
14.4553	55.06
14.4654	55.95
14.4756	57.02
14.4858	56.27
14.4959	55.82
14.5061	55.55
14.5163	55.40
14.5264	56.39
14.5366	56.64
14.5468	57.20
14.5569	56.79
14.5671	56.57
14.5773	57.38
14.5874	57.55
14.5976	56.54
14.6078	57.46
14.6179	57.12
14.6281	56.77
14.6382	57.10
14.6484	56.68
14.6586	57.57
14.6687	57.83
14.6789	58.72
14.6891	58.49
14.6992	57.97
14.7094	57.60
14.7196	57.79
14.7297	57.95
14.7399	57.87
14.7501	58.86
14.7602	58.84
14.7704	59.12
14.7805	58.28
14.7907	59.78
14.8009	59.54
14.811	58.56
14.8212	60.49
14.8314	60.03
14.8415	58.64
14.8517	60.52
14.8619	60.58
14.872	61.66
14.8822	62.29
14.8924	61.01
14.9025	61.79
14.9127	60.34
14.9229	61.74
14.933	60.66
14.9432	62.60
14.9533	62.35
14.9635	61.18
14.9737	61.54
14.9838	62.77
14.994	61.15
15.0042	61.41
15.0143	61.44
15.0245	62.75
15.0347	61.28
15.0448	62.96
15.055	64.03
15.0652	62.61
15.0753	63.60
15.0855	63.18
15.0956	63.43
15.1058	63.58
15.116	63.44
15.1261	63.91
15.1363	63.69
15.1465	64.24
15.1566	63.02
15.1668	65.49
15.177	64.02
15.1871	64.65
15.1973	65.26
15.2075	66.57
15.2176	63.55
15.2278	65.76
15.238	64.90
15.2481	65.52
15.2583	65.60
15.2684	65.28
15.2786	67.35
15.2888	66.45
15.2989	66.32
15.3091	66.32
15.3193	67.57
15.3294	65.84
15.3396	66.82
15.3498	67.63
15.3599	66.49
15.3701	66.94
15.3803	67.40
15.3904	66.82
15.4006	67.33
15.4107	67.38
15.4209	68.16
15.4311	67.71
15.4412	68.21
15.4514	68.43
15.4616	68.07
15.4717	69.18
15.4819	69.38
15.4921	68.74
15.5022	68.91
15.5124	69.10
15.5226	69.81
15.5327	68.60
15.5429	70.47
15.553	69.99
15.5632	69.54
15.5734	69.90
15.5835	70.24
15.5937	70.47
15.6039	70.96
15.614	70.63
15.6242	71.78
15.6344	72.04
15.6445	72.47
15.6547	70.80
15.6649	72.09
15.675	72.31
15.6852	72.45
15.6954	72.61
15.7055	73.25
15.7157	71.69
15.7258	72.80
15.736	73.07
15.7462	72.85
15.7563	72.25
15.7665	72.45
15.7767	74.05
15.7868	73.28
15.797	74.29
15.8072	73.55
15.8173	74.46
15.8275	73.17
15.8377	75.25
15.8478	74.40
15.858	75.10
15.8681	75.23
15.8783	74.20
15.8885	74.65
15.8986	75.59
15.9088	74.87
15.919	76.15
15.9291	76.38
15.9393	74.65
15.9495	76.42
15.9596	76.74
15.9698	74.98
15.98	76.54
15.9901	77.71
16.0003	77.51
16.0105	77.73
16.0206	76.77
16.0308	77.25
16.0409	78.74
16.0511	78.00
16.0613	78.51
16.0714	78.27
16.0816	78.65
16.0918	79.08
16.1019	78.76
16.1121	79.20
16.1223	78.56
16.1324	78.54
16.1426	80.07
16.1528	78.69
16.1629	80.09
16.1731	80.40
16.1832	80.76
16.1934	79.93
16.2036	80.38
16.2137	80.33
16.2239	81.10
16.2341	81.63
16.2442	82.50
16.2544	81.74
16.2646	81.80
16.2747	81.41
16.2849	81.88
16.2951	81.67
16.3052	83.05
16.3154	85.16
16.3256	82.99
16.3357	83.52
16.3459	85.03
16.356	84.70
16.3662	82.73
16.3764	84.93
16.3865	83.83
16.3967	86.66
16.4069	85.16
16.417	84.39
16.4272	84.88
16.4374	85.51
16.4475	86.21
16.4577	86.37
16.4679	85.64
16.478	86.65
16.4882	86.80
16.4983	86.41
16.5085	88.38
16.5187	87.33
16.5288	87.86
16.539	88.46
16.5492	86.55
16.5593	88.38
16.5695	88.57
16.5797	88.18
16.5898	89.25
16.6	90.71
16.6102	88.05
16.6203	89.13
16.6305	90.43
16.6407	88.80
16.6508	90.32
16.661	90.95
16.6711	89.34
16.6813	91.90
16.6915	91.64
16.7016	90.20
16.7118	90.79
16.722	93.54
16.7321	91.45
16.7423	92.44
16.7525	91.08
16.7626	92.87
16.7728	92.57
16.783	93.59
16.7931	93.34
16.8033	94.61
16.8134	94.06
16.8236	92.79
16.8338	93.99
16.8439	94.28
16.8541	94.27
16.8643	94.76
16.8744	95.61
16.8846	94.31
16.8948	94.71
16.9049	96.16
16.9151	95.71
16.9253	95.53
16.9354	95.22
16.9456	97.02
16.9558	95.16
16.9659	97.12
16.9761	96.04
16.9862	95.45
16.9964	97.10
17.0066	95.65
17.0167	96.58
17.0269	97.06
17.0371	96.79
17.0472	98.73
17.0574	97.79
17.0676	98.36
17.0777	95.95
17.0879	98.23
17.0981	98.52
17.1082	99.09
17.1184	97.97
17.1285	99.98
17.1387	100.47
17.1489	99.93
17.159	98.55
17.1692	99.33
17.1794	99.87
17.1895	99.56
17.1997	100.22
17.2099	100.21
17.22	100.04
17.2302	101.37
17.2404	102.46
17.2505	101.45
17.2607	101.41
17.2709	101.98
17.281	101.05
17.2912	102.84
17.3013	102.72
17.3115	101.48
17.3217	103.92
17.3318	104.21
17.342	103.79
17.3522	104.07
17.3623	105.60
17.3725	102.03
17.3827	105.96
17.3928	106.21
17.403	103.39
17.4132	104.22
17.4233	104.90
17.4335	105.48
17.4436	106.21
17.4538	106.54
17.464	106.49
17.4741	107.70
17.4843	107.89
17.4945	107.20
17.5046	106.23
17.5148	108.80
17.525	107.54
17.5351	108.07
17.5453	109.95
17.5555	108.43
17.5656	109.10
17.5758	110.39
17.5859	108.87
17.5961	110.66
17.6063	112.02
17.6164	112.32
17.6266	110.25
17.6368	113.07
17.6469	111.38
17.6571	111.70
17.6673	113.37
17.6774	113.04
17.6876	114.21
17.6978	115.98
17.7079	114.51
17.7181	114.84
17.7283	117.78
17.7384	116.36
17.7486	116.87
17.7587	117.90
17.7689	117.57
17.7791	117.21
17.7892	119.73
17.7994	119.11
17.8096	119.68
17.8197	121.96
17.8299	120.30
17.8401	120.93
17.8502	124.22
17.8604	123.58
17.8706	124.21
17.8807	126.49
17.8909	126.01
17.901	125.23
17.9112	127.09
17.9214	127.50
17.9315	126.89
17.9417	130.50
17.9519	130.02
17.962	129.64
17.9722	132.05
17.9824	131.70
17.9925	134.91
18.0027	134.94
18.0129	135.21
18.023	137.09
18.0332	138.07
18.0434	136.11
18.0535	139.40
18.0637	142.32
18.0738	141.43
18.084	142.52
18.0942	145.25
18.1043	147.22
18.1145	146.60
18.1247	151.59
18.1348	151.76
18.145	153.32
18.1552	155.45
18.1653	157.07
18.1755	157.77
18.1857	159.91
18.1958	160.52
18.206	162.48
18.2161	167.20
18.2263	168.38
18.2365	169.20
18.2466	172.60
18.2568	173.76
18.267	177.41
18.2771	181.70
18.2873	181.87
18.2975	183.20
18.3076	188.63
18.3178	190.40
18.328	192.07
18.3381	196.83
18.3483	197.80
18.3585	201.24
18.3686	204.27
18.3788	208.45
18.3889	207.06
18.3991	213.96
18.4093	217.17
18.4194	217.02
18.4296	223.79
18.4398	226.39
18.4499	225.89
18.4601	232.06
18.4703	234.91
18.4804	237.90
18.4906	242.79
18.5008	242.39
18.5109	247.09
18.5211	249.01
18.5312	251.09
18.5414	252.46
18.5516	256.11
18.5617	256.98
18.5719	258.78
18.5821	260.29
18.5922	263.19
18.6024	264.03
18.6126	264.62
18.6227	264.74
18.6329	264.27
18.6431	265.84
18.6532	266.98
18.6634	264.93
18.6736	265.22
18.6837	263.24
18.6939	260.99
18.704	264.99
18.7142	260.55
18.7244	259.41
18.7345	258.49
18.7447	257.96
18.7549	255.99
18.765	250.49
18.7752	249.60
18.7854	245.94
18.7955	242.91
18.8057	241.73
18.8159	237.83
18.826	234.32
18.8362	231.87
18.8463	226.82
18.8565	225.50
18.8667	222.85
18.8768	217.27
18.887	217.90
18.8972	216.77
18.9073	208.70
18.9175	207.98
18.9277	205.04
18.9378	199.79
18.948	198.59
18.9582	196.99
18.9683	192.71
18.9785	191.24
18.9887	184.91
18.9988	181.82
19.009	184.42
19.0191	179.29
19.0293	177.81
19.0395	175.87
19.0496	173.81
19.0598	170.35
19.07	169.30
19.0801	167.49
19.0903	165.79
19.1005	163.67
19.1106	159.41
19.1208	157.17
19.131	157.65
19.1411	154.50
19.1513	153.82
19.1614	153.51
19.1716	151.49
19.1818	150.71
19.1919	149.51
19.2021	147.76
19.2123	145.94
19.2224	145.38
19.2326	143.27
19.2428	142.60
19.2529	141.04
19.2631	139.53
19.2733	139.05
19.2834	139.19
19.2936	138.71
19.3038	135.74
19.3139	136.62
19.3241	135.18
19.3342	132.85
19.3444	134.82
19.3546	132.07
19.3647	131.79
19.3749	131.86
19.3851	130.69
19.3952	130.52
19.4054	129.75
19.4156	130.61
19.4257	128.71
19.4359	129.31
19.4461	128.38
19.4562	129.04
19.4664	127.26
19.4765	127.56
19.4867	125.99
19.4969	126.49
19.507	126.45
19.5172	124.42
19.5274	126.23
19.5375	123.47
19.5477	124.60
19.5579	125.05
19.568	123.58
19.5782	122.36
19.5884	123.73
19.5985	121.38
19.6087	122.09
19.6188	122.46
19.629	123.37
19.6392	122.07
19.6493	123.81
19.6595	120.80
19.6697	120.99
19.6798	122.15
19.69	121.00
19.7002	120.96
19.7103	122.54
19.7205	121.78
19.7307	120.67
19.7408	120.57
19.751	121.90
19.7612	120.85
19.7713	120.16
19.7815	121.35
19.7916	119.70
19.8018	121.72
19.812	121.87
19.8221	121.07
19.8323	122.82
19.8425	121.41
19.8526	121.57
19.8628	121.46
19.873	120.57
19.8831	121.40
19.8933	122.52
19.9035	122.76
19.9136	122.65
19.9238	121.96
19.9339	123.25
19.9441	118.96
19.9543	122.19
19.9644	122.12
19.9746	122.18
19.9848	124.18
19.9949	122.27
20.0051	123.04
20.0153	122.93
20.0254	124.01
20.0356	123.45
20.0458	122.93
20.0559	125.20
20.0661	124.24
20.0763	126.73
20.0864	126.23
20.0966	124.60
20.1067	128.12
20.1169	127.23
20.1271	126.72
20.1372	128.41
20.1474	127.09
20.1576	127.93
20.1677	128.70
20.1779	126.96
20.1881	130.98
20.1982	130.66
20.2084	131.10
20.2186	130.38
20.2287	131.70
20.2389	131.73
20.249	131.48
20.2592	134.16
20.2694	132.84
20.2795	134.42
20.2897	134.24
20.2999	133.98
20.31	133.79
20.3202	137.41
20.3304	135.52
20.3405	135.40
20.3507	137.34
20.3609	136.57
20.371	138.17
20.3812	138.60
20.3914	138.21
20.4015	138.37
20.4117	139.33
20.4218	139.21
20.432	139.71
20.4422	141.13
20.4523	140.96
20.4625	139.87
20.4727	143.14
20.4828	142.48
20.493	142.20
20.5032	143.16
20.5133	144.26
20.5235	142.22
20.5337	144.18
20.5438	145.01
20.554	142.86
20.5641	144.18
20.5743	144.02
20.5845	142.49
20.5946	143.00
20.6048	143.60
20.615	144.56
20.6251	143.66
20.6353	143.92
20.6455	142.40
20.6556	143.55
20.6658	142.99
20.676	142.78
20.6861	141.62
20.6963	143.72
20.7065	141.55
20.7166	140.53
20.7268	142.82
20.7369	140.45
20.7471	139.76
20.7573	139.07
20.7674	138.63
20.7776	135.86
20.7878	138.35
20.7979	137.80
20.8081	137.51
20.8183	134.75
20.8284	134.15
20.8386	134.46
20.8488	135.41
20.8589	131.44
20.8691	131.09
20.8792	131.82
20.8894	131.70
20.8996	131.79
20.9097	129.01
20.9199	129.43
20.9301	127.61
20.9402	128.20
20.9504	124.01
20.9606	127.26
20.9707	126.37
20.9809	125.65
20.9911	121.40
21.0012	122.96
21.0114	120.79
21.0216	122.97
21.0317	120.77
21.0419	119.94
21.052	120.32
21.0622	120.30
21.0724	118.91
21.0825	119.80
21.0927	118.06
21.1029	116.76
21.113	117.15
21.1232	117.40
21.1334	115.30
21.1435	115.45
21.1537	114.77
21.1639	113.90
21.174	116.02
21.1842	113.54
21.1943	112.84
21.2045	113.98
21.2147	113.07
21.2248	112.56
21.235	113.45
21.2452	112.61
21.2553	110.70
21.2655	112.27
21.2757	112.62
21.2858	109.77
21.296	111.99
21.3062	111.76
21.3163	110.60
21.3265	110.41
21.3366	109.35
21.3468	109.43
21.357	108.99
21.3671	109.76
21.3773	108.65
21.3875	111.13
21.3976	108.91
21.4078	107.60
21.418	108.28
21.4281	108.15
21.4383	107.96
21.4485	110.52
21.4586	110.21
21.4688	107.95
21.479	108.91
21.4891	108.33
21.4993	107.08
21.5094	110.32
21.5196	110.41
21.5298	108.16
21.5399	109.49
21.5501	110.73
21.5603	107.70
21.5704	110.12
21.5806	112.40
21.5908	109.90
21.6009	111.54
21.6111	111.37
21.6213	110.30
21.6314	112.27
21.6416	112.27
21.6517	112.04
21.6619	112.47
21.6721	112.90
21.6822	112.28
21.6924	114.32
21.7026	115.04
21.7127	113.00
21.7229	114.15
21.7331	116.98
21.7432	115.61
21.7534	116.56
21.7636	117.33
21.7737	116.95
21.7839	118.46
21.7941	120.23
21.8042	120.02
21.8144	121.11
21.8245	123.59
21.8347	121.53
21.8449	122.30
21.855	123.35
21.8652	124.59
21.8754	124.70
21.8855	126.15
21.8957	125.55
21.9059	127.41
21.916	129.84
21.9262	127.51
21.9364	129.36
21.9465	130.07
21.9567	130.30
21.9668	131.84
21.977	134.82
21.9872	132.26
21.9973	135.02
22.0075	136.13
22.0177	136.43
22.0278	136.93
22.038	138.58
22.0482	139.24
22.0583	140.87
22.0685	142.39
22.0787	142.40
22.0888	144.08
22.099	145.09
22.1092	144.40
22.1193	147.48
22.1295	149.76
22.1396	147.98
22.1498	150.52
22.16	152.98
22.1701	149.85
22.1803	153.53
22.1905	154.79
22.2006	153.85
22.2108	155.64
22.221	159.60
22.2311	157.85
22.2413	158.98
22.2515	161.51
22.2616	158.88
22.2718	161.66
22.2819	162.90
22.2921	163.37
22.3023	162.38
22.3124	162.19
22.3226	162.66
22.3328	167.44
22.3429	168.28
22.3531	164.44
22.3633	167.24
22.3734	168.41
22.3836	163.16
22.3938	166.82
22.4039	169.24
22.4141	167.38
22.4243	169.63
22.4344	169.07
22.4446	168.51
22.4547	170.93
22.4649	168.08
22.4751	168.20
22.4852	168.84
22.4954	168.01
22.5056	165.53
22.5157	168.51
22.5259	168.79
22.5361	166.62
22.5462	166.76
22.5564	165.59
22.5666	163.56
22.5767	163.82
22.5869	165.73
22.597	160.85
22.6072	161.04
22.6174	162.68
22.6275	159.29
22.6377	159.11
22.6479	158.93
22.658	156.82
22.6682	157.13
22.6784	156.57
22.6885	155.18
22.6987	156.02
22.7089	153.23
22.719	151.24
22.7292	152.59
22.7394	150.56
22.7495	147.03
22.7597	147.76
22.7698	146.11
22.78	144.66
22.7902	145.48
22.8003	142.68
22.8105	140.52
22.8207	142.99
22.8308	139.87
22.841	140.13
22.8512	139.04
22.8613	139.16
22.8715	134.49
22.8817	135.71
22.8918	133.90
22.902	131.76
22.9121	131.41
22.9223	131.75
22.9325	128.23
22.9426	131.45
22.9528	127.76
22.963	125.74
22.9731	126.80
22.9833	125.03
22.9935	122.09
23.0036	124.24
23.0138	122.34
23.024	119.87
23.0341	119.06
23.0443	118.62
23.0545	117.63
23.0646	116.88
23.0748	115.79
23.0849	117.12
23.0951	113.95
23.1053	112.30
23.1154	110.73
23.1256	111.71
23.1358	110.68
23.1459	110.24
23.1561	108.26
23.1663	107.87
23.1764	105.55
23.1866	106.71
23.1968	105.76
23.2069	105.37
23.2171	104.41
23.2272	105.12
23.2374	101.86
23.2476	103.79
23.2577	100.96
23.2679	101.22
23.2781	98.98
23.2882	98.71
23.2984	98.68
23.3086	97.63
23.3187	97.20
23.3289	95.64
23.3391	95.56
23.3492	93.85
23.3594	93.49
23.3695	93.98
23.3797	93.66
23.3899	92.79
23.4	91.48
23.4102	90.52
23.4204	90.82
23.4305	91.38
23.4407	88.56
23.4509	89.26
23.461	88.51
23.4712	86.33
23.4814	87.33
23.4915	86.02
23.5017	85.98
23.5119	85.75
23.522	83.95
23.5322	83.88
23.5423	81.54
23.5525	83.86
23.5627	82.08
23.5728	82.60
23.583	80.45
23.5932	81.02
23.6033	80.76
23.6135	80.90
23.6237	80.95
23.6338	78.80
23.644	78.74
23.6542	79.07
23.6643	80.02
23.6745	79.37
23.6846	77.82
23.6948	78.40
23.705	77.15
23.7151	77.37
23.7253	76.20
23.7355	76.11
23.7456	75.89
23.7558	74.93
23.766	74.24
23.7761	73.78
23.7863	73.90
23.7965	74.84
23.8066	73.98
23.8168	72.86
23.827	73.90
23.8371	71.52
23.8473	71.25
23.8574	72.88
23.8676	72.20
23.8778	70.40
23.8879	71.27
23.8981	71.18
23.9083	70.66
23.9184	69.57
23.9286	70.07
23.9388	70.79
23.9489	68.62
23.9591	70.06
23.9693	69.20
23.9794	68.30
23.9896	67.21
23.9997	68.02
24.0099	67.86
24.0201	68.06
24.0302	66.64
24.0404	67.25
24.0506	67.77
24.0607	67.15
24.0709	66.68
24.0811	66.09
24.0912	66.88
24.1014	65.94
24.1116	66.00
24.1217	66.64
24.1319	65.82
24.1421	64.23
24.1522	64.64
24.1624	64.57
24.1725	64.56
24.1827	64.85
24.1929	66.12
24.203	64.29
24.2132	64.09
24.2234	64.09
24.2335	64.07
24.2437	63.46
24.2539	62.14
24.264	63.00
24.2742	62.82
24.2844	61.27
24.2945	63.02
24.3047	61.44
24.3148	63.29
24.325	62.57
24.3352	62.15
24.3453	61.58
24.3555	61.66
24.3657	61.65
24.3758	60.88
24.386	61.39
24.3962	61.59
24.4063	60.83
24.4165	62.15
24.4267	60.75
24.4368	60.25
24.447	60.59
24.4572	60.62
24.4673	60.85
24.4775	60.34
24.4876	61.59
24.4978	60.96
24.508	59.48
24.5181	60.68
24.5283	59.57
24.5385	58.50
24.5486	58.92
24.5588	58.76
24.569	59.47
24.5791	59.07
24.5893	59.05
24.5995	58.14
24.6096	58.59
24.6198	58.60
24.6299	58.62
24.6401	57.86
24.6503	58.85
24.6604	57.87
24.6706	58.15
24.6808	57.76
24.6909	57.91
24.7011	57.90
24.7113	58.44
24.7214	58.20
24.7316	57.65
24.7418	56.24
24.7519	58.35
24.7621	55.83
24.7723	56.54
24.7824	58.21
24.7926	57.48
24.8027	57.10
24.8129	57.27
24.8231	56.58
24.8332	56.46
24.8434	57.50
24.8536	56.63
24.8637	57.00
24.8739	56.66
24.8841	56.65
24.8942	55.48
24.9044	56.15
24.9146	56.60
24.9247	56.13
24.9349	54.78
24.945	56.39
24.9552	56.85
24.9654	55.36
24.9755	55.88
24.9857	54.45
24.9959	55.81
25.006	55.17
25.0162	54.63
25.0264	55.93
25.0365	55.25
25.0467	55.35
25.0569	55.39
25.067	55.34
25.0772	55.66
25.0874	54.60
25.0975	54.45
25.1077	55.40
25.1178	56.05
25.128	55.37
25.1382	54.29
25.1483	54.98
25.1585	54.45
25.1687	53.39
25.1788	53.87
25.189	55.66
25.1992	53.77
25.2093	54.68
25.2195	54.74
25.2297	55.67
25.2398	54.46
25.25	54.63
25.2601	53.98
25.2703	54.82
25.2805	54.34
25.2906	54.32
25.3008	54.31
25.311	53.79
25.3211	54.02
25.3313	54.30
25.3415	54.65
25.3516	54.98
25.3618	53.94
25.372	54.50
25.3821	54.00
25.3923	54.65
25.4024	53.59
25.4126	53.76
25.4228	53.37
25.4329	53.38
25.4431	54.23
25.4533	54.23
25.4634	53.10
25.4736	54.02
25.4838	53.62
25.4939	53.24
25.5041	53.09
25.5143	53.12
25.5244	54.14
25.5346	52.91
25.5448	52.88
25.5549	52.26
25.5651	53.34
25.5752	52.45
25.5854	53.09
25.5956	53.41
25.6057	53.52
25.6159	52.85
25.6261	51.91
25.6362	53.41
25.6464	52.43
25.6566	53.69
25.6667	54.19
25.6769	52.57
25.6871	52.46
25.6972	51.81
25.7074	51.33
25.7175	52.18
25.7277	52.63
25.7379	51.30
25.748	52.65
25.7582	52.73
25.7684	51.60
25.7785	52.21
25.7887	52.60
25.7989	51.98
25.809	53.07
25.8192	51.96
25.8294	52.16
25.8395	51.21
25.8497	51.89
25.8599	51.75
25.87	53.09
25.8802	51.72
25.8903	51.37
25.9005	51.76
25.9107	51.54
25.9208	50.71
25.931	50.04
25.9412	51.05
25.9513	50.87
25.9615	50.44
25.9717	50.88
25.9818	50.70
25.992	50.56
26.0022	50.98
26.0123	50.16
26.0225	50.41
26.0326	50.52
26.0428	50.51
26.053	50.74
26.0631	50.31
26.0733	51.19
26.0835	49.51
26.0936	49.95
26.1038	50.27
26.114	49.05
26.1241	49.54
26.1343	49.92
26.1445	49.97
26.1546	49.85
26.1648	49.55
26.175	49.40
26.1851	49.37
26.1953	49.60
26.2054	49.39
26.2156	49.29
26.2258	49.44
26.2359	49.21
26.2461	49.73
26.2563	49.52
26.2664	48.90
26.2766	49.10
26.2868	49.99
26.2969	48.42
26.3071	50.15
26.3173	49.13
26.3274	48.87
26.3376	48.41
26.3477	48.86
26.3579	49.16
26.3681	48.94
26.3782	48.42
26.3884	49.28
26.3986	48.34
26.4087	48.52
26.4189	49.19
26.4291	47.79
26.4392	47.70
26.4494	48.21
26.4596	48.58
26.4697	47.18
26.4799	48.55
26.4901	46.61
26.5002	47.91
26.5104	47.54
26.5205	48.27
26.5307	47.79
26.5409	47.24
26.551	48.00
26.5612	48.02
26.5714	48.43
26.5815	47.97
26.5917	47.93
26.6019	47.32
26.612	47.46
26.6222	48.24
26.6324	47.38
26.6425	47.92
26.6527	47.38
26.6628	47.96
26.673	46.16
26.6832	45.36
26.6933	47.21
26.7035	46.52
26.7137	47.87
26.7238	47.71
26.734	48.09
26.7442	47.01
26.7543	46.76
26.7645	46.82
26.7747	47.15
26.7848	46.90
26.795	45.86
26.8052	47.26
26.8153	46.32
26.8255	47.57
26.8356	46.88
26.8458	46.97
26.856	46.29
26.8661	46.65
26.8763	47.62
26.8865	46.38
26.8966	46.49
26.9068	46.05
26.917	45.96
26.9271	45.71
26.9373	46.66
26.9475	46.60
26.9576	45.99
26.9678	46.70
26.9779	47.23
26.9881	45.93
26.9983	46.96
27.0084	46.05
27.0186	46.04
27.0288	46.53
27.0389	44.55
27.0491	47.37
27.0593	45.91
27.0694	45.36
27.0796	44.59
27.0898	45.41
27.0999	45.97
27.1101	45.46
27.1202	46.05
27.1304	46.50
27.1406	46.40
27.1507	46.89
27.1609	46.34
27.1711	46.55
27.1812	46.34
27.1914	46.46
27.2016	46.05
27.2117	46.91
27.2219	46.12
27.2321	46.82
27.2422	46.79
27.2524	46.47
27.2626	46.25
27.2727	46.55
27.2829	46.41
27.293	46.71
27.3032	46.16
27.3134	46.22
27.3235	46.87
27.3337	46.44
27.3439	46.75
27.354	46.75
27.3642	46.34
27.3744	46.77
27.3845	47.05
27.3947	46.51
27.4049	46.53
27.415	46.07
27.4252	46.46
27.4353	47.51
27.4455	46.94
27.4557	46.60
27.4658	46.68
27.476	46.18
27.4862	47.52
27.4963	46.89
27.5065	47.57
27.5167	47.17
27.5268	47.16
27.537	47.97
27.5472	47.88
27.5573	46.63
27.5675	47.23
27.5777	47.64
27.5878	47.55
27.598	47.76
27.6081	48.68
27.6183	48.29
27.6285	48.60
27.6386	48.13
27.6488	48.01
27.659	49.01
27.6691	50.03
27.6793	48.90
27.6895	48.32
27.6996	48.63
27.7098	49.21
27.72	49.93
27.7301	49.72
27.7403	49.53
27.7504	48.84
27.7606	50.95
27.7708	49.94
27.7809	50.22
27.7911	51.01
27.8013	51.18
27.8114	50.38
27.8216	51.28
27.8318	51.30
27.8419	52.73
27.8521	51.94
27.8623	50.69
27.8724	52.62
27.8826	51.91
27.8928	53.30
27.9029	53.93
27.9131	53.23
27.9232	53.03
27.9334	54.41
27.9436	53.94
27.9537	54.97
27.9639	53.80
27.9741	55.60
27.9842	55.63
27.9944	55.63
28.0046	55.83
28.0147	56.45
28.0249	56.34
28.0351	56.89
28.0452	56.77
28.0554	57.66
28.0655	58.21
28.0757	58.87
28.0859	59.34
28.096	59.40
28.1062	59.29
28.1164	60.88
28.1265	60.32
28.1367	61.66
28.1469	61.43
28.157	62.41
28.1672	61.37
28.1774	63.55
28.1875	64.15
28.1977	63.45
28.2079	65.10
28.218	65.49
28.2282	65.08
28.2383	65.73
28.2485	65.18
28.2587	67.36
28.2688	65.99
28.279	67.76
28.2892	68.07
28.2993	68.77
28.3095	67.94
28.3197	68.24
28.3298	69.43
28.34	70.07
28.3502	69.79
28.3603	70.02
28.3705	70.55
28.3806	71.34
28.3908	72.05
28.401	71.15
28.4111	70.50
28.4213	71.68
28.4315	71.13
28.4416	73.64
28.4518	71.08
28.462	72.08
28.4721	71.90
28.4823	72.37
28.4925	72.14
28.5026	72.34
28.5128	71.66
28.523	72.87
28.5331	73.18
28.5433	72.87
28.5534	72.36
28.5636	71.27
28.5738	73.24
28.5839	71.91
28.5941	72.11
28.6043	72.10
28.6144	71.40
28.6246	71.56
28.6348	71.91
28.6449	71.25
28.6551	71.09
28.6653	70.15
28.6754	70.17
28.6856	70.47
28.6957	70.45
28.7059	69.80
28.7161	69.57
28.7262	70.52
28.7364	68.65
28.7466	69.05
28.7567	67.93
28.7669	68.73
28.7771	67.14
28.7872	66.88
28.7974	67.16
28.8076	66.53
28.8177	65.22
28.8279	65.54
28.8381	66.28
28.8482	65.24
28.8584	64.18
28.8685	63.25
28.8787	63.26
28.8889	63.79
28.899	63.29
28.9092	63.06
28.9194	61.65
28.9295	60.76
28.9397	61.74
28.9499	60.62
28.96	61.27
28.9702	60.81
28.9804	59.77
28.9905	60.21
29.0007	59.31
29.0108	58.78
29.021	58.32
29.0312	58.48
29.0413	57.91
29.0515	57.40
29.0617	56.75
29.0718	56.19
29.082	55.65
29.0922	55.87
29.1023	56.34
29.1125	55.07
29.1227	56.51
29.1328	54.82
29.143	54.31
29.1531	54.52
29.1633	52.96
29.1735	53.23
29.1836	54.20
29.1938	53.59
29.204	51.92
29.2141	51.84
29.2243	51.39
29.2345	51.04
29.2446	50.91
29.2548	50.01
29.265	51.18
29.2751	50.26
29.2853	50.70
29.2955	49.50
29.3056	49.15
29.3158	48.77
29.3259	48.46
29.3361	49.44
29.3463	48.74
29.3564	48.96
29.3666	48.27
29.3768	48.01
29.3869	48.04
29.3971	48.75
29.4073	47.46
29.4174	48.10
29.4276	47.76
29.4378	47.32
29.4479	47.23
29.4581	46.43
29.4682	45.96
29.4784	46.46
29.4886	46.07
29.4987	45.51
29.5089	45.28
29.5191	45.92
29.5292	45.34
29.5394	45.87
29.5496	45.52
29.5597	44.79
29.5699	45.29
29.5801	45.25
29.5902	44.66
29.6004	44.63
29.6106	45.02
29.6207	44.24
29.6309	44.11
29.641	44.34
29.6512	44.12
29.6614	44.07
29.6715	44.34
29.6817	43.84
29.6919	43.80
29.702	43.52
29.7122	43.08
29.7224	43.90
29.7325	42.82
29.7427	43.99
29.7529	43.08
29.763	44.11
29.7732	42.83
29.7833	42.93
29.7935	44.02
29.8037	42.94
29.8138	41.56
29.824	42.72
29.8342	42.62
29.8443	43.06
29.8545	41.82
29.8647	42.22
29.8748	42.88
29.885	42.14
29.8952	42.77
29.9053	42.27
29.9155	44.13
29.9257	40.49
29.9358	41.05
29.946	41.21
29.9561	41.63
29.9663	42.10
29.9765	41.52
29.9866	41.55
29.9968	42.20
30.007	42.54
30.0171	41.82
30.0273	41.63
30.0375	41.92
30.0476	41.48
30.0578	41.28
30.068	41.13
30.0781	41.05
30.0883	40.40
30.0984	41.91
30.1086	40.90
30.1188	40.63
30.1289	41.03
30.1391	40.13
30.1493	40.84
30.1594	40.48
30.1696	39.54
30.1798	39.68
30.1899	40.23
30.2001	40.45
30.2103	40.20
30.2204	40.32
30.2306	40.91
30.2408	40.16
30.2509	41.28
30.2611	39.28
30.2712	39.69
30.2814	39.69
30.2916	39.65
30.3017	39.27
30.3119	38.94
30.3221	39.07
30.3322	40.14
30.3424	38.85
30.3526	38.29
30.3627	39.29
30.3729	38.76
30.3831	37.95
30.3932	38.27
30.4034	38.87
30.4135	38.55
30.4237	37.83
30.4339	37.46
30.444	37.01
30.4542	37.80
30.4644	36.76
30.4745	36.58
30.4847	36.52
30.4949	36.92
30.505	37.10
30.5152	36.27
30.5254	37.84
30.5355	36.27
30.5457	36.88
30.5559	37.06
30.566	36.47
30.5762	36.35
30.5863	36.82
30.5965	35.93
30.6067	36.40
30.6168	36.81
30.627	36.01
30.6372	36.63
30.6473	36.23
30.6575	35.78
30.6677	35.32
30.6778	35.67
30.688	36.07
30.6982	34.38
30.7083	35.31
30.7185	35.20
30.7286	35.19
30.7388	35.38
30.749	35.24
30.7591	35.14
30.7693	34.66
30.7795	35.11
30.7896	34.93
30.7998	34.98
30.81	34.11
30.8201	35.02
30.8303	35.15
30.8405	34.29
30.8506	34.21
30.8608	35.02
30.871	35.30
30.8811	33.99
30.8913	34.76
30.9014	34.43
30.9116	33.88
30.9218	34.39
30.9319	33.57
30.9421	34.06
30.9523	34.84
30.9624	34.53
30.9726	33.57
30.9828	33.19
30.9929	33.38
31.0031	33.74
31.0133	33.34
31.0234	33.88
31.0336	33.69
31.0437	33.46
31.0539	33.57
31.0641	33.41
31.0742	34.55
31.0844	34.17
31.0946	32.40
31.1047	33.14
31.1149	33.28
31.1251	33.23
31.1352	34.09
31.1454	33.20
31.1556	32.83
31.1657	33.24
31.1759	32.38
31.186	33.41
31.1962	32.80
31.2064	33.66
31.2165	33.01
31.2267	33.21
31.2369	32.04
31.247	32.56
31.2572	33.68
31.2674	31.84
31.2775	32.97
31.2877	32.88
31.2979	32.44
31.308	33.59
31.3182	32.34
31.3284	32.49
31.3385	31.86
31.3487	32.89
31.3588	32.04
31.369	33.07
31.3792	31.91
31.3893	32.65
31.3995	32.37
31.4097	32.18
31.4198	32.55
31.43	32.57
31.4402	32.62
31.4503	32.20
31.4605	32.23
31.4707	32.23
31.4808	32.38
31.491	32.74
31.5011	32.85
31.5113	32.37
31.5215	32.76
31.5316	32.09
31.5418	31.88
31.552	32.86
31.5621	32.34
31.5723	32.21
31.5825	31.96
31.5926	31.84
31.6028	31.67
31.613	32.24
31.6231	32.84
31.6333	32.55
31.6435	32.63
31.6536	33.21
31.6638	31.88
31.6739	32.08
31.6841	32.45
31.6943	31.84
31.7044	32.35
31.7146	32.80
31.7248	31.58
31.7349	31.84
31.7451	32.15
31.7553	31.76
31.7654	31.66
31.7756	32.22
31.7858	31.94
31.7959	32.02
31.8061	31.62
31.8162	31.99
31.8264	31.56
31.8366	31.77
31.8467	32.50
31.8569	31.65
31.8671	32.19
31.8772	32.09
31.8874	31.70
31.8976	31.86
31.9077	32.15
31.9179	32.33
31.9281	31.71
31.9382	31.60
31.9484	31.75
31.9586	32.87
31.9687	32.40
31.9789	32.15
31.989	32.87
31.9992	32.27
32.0094	32.74
32.0195	31.96
32.0297	32.39
32.0399	32.62
32.05	31.92
32.0602	32.18
32.0704	32.21
32.0805	32.32
32.0907	31.41
32.1009	32.27
32.111	31.45
32.1212	32.46
32.1313	31.73
32.1415	33.24
32.1517	31.31
32.1618	31.75
32.172	31.84
32.1822	31.96
32.1923	32.60
32.2025	32.20
32.2127	32.35
32.2228	32.26
32.233	31.87
32.2432	32.60
32.2533	31.72
32.2635	32.99
32.2737	32.12
32.2838	33.25
32.294	32.66
32.3041	32.40
32.3143	32.06
32.3245	31.92
32.3346	32.18
32.3448	32.44
32.355	31.95
32.3651	32.96
32.3753	32.00
32.3855	32.46
32.3956	32.53
32.4058	32.49
32.416	32.85
32.4261	32.01
32.4363	32.27
32.4464	32.34
32.4566	32.79
32.4668	33.65
32.4769	32.68
32.4871	32.34
32.4973	32.11
32.5074	32.72
32.5176	33.02
32.5278	32.77
32.5379	33.07
32.5481	31.88
32.5583	33.02
32.5684	33.27
32.5786	32.87
32.5888	32.78
32.5989	32.36
32.6091	32.23
32.6192	33.04
32.6294	33.07
32.6396	32.71
32.6497	32.60
32.6599	32.16
32.6701	32.38
32.6802	31.93
32.6904	33.18
32.7006	32.38
32.7107	32.73
32.7209	32.10
32.7311	32.23
32.7412	32.61
32.7514	32.74
32.7615	31.97
32.7717	32.45
32.7819	32.13
32.792	32.02
32.8022	32.40
32.8124	32.63
32.8225	32.13
32.8327	32.47
32.8429	32.01
32.853	31.43
32.8632	32.95
32.8734	32.96
32.8835	32.65
32.8937	32.77
32.9039	32.46
32.914	32.85
32.9242	32.91
32.9343	31.89
32.9445	32.16
32.9547	32.32
32.9648	32.71
32.975	32.23
32.9852	32.33
32.9953	33.27
33.0055	31.34
33.0157	33.32
33.0258	32.46
33.036	32.40
33.0462	32.07
33.0563	32.65
33.0665	32.38
33.0766	32.88
33.0868	31.45
33.097	33.14
33.1071	32.75
33.1173	33.08
33.1275	32.41
33.1376	32.80
33.1478	32.08
33.158	32.16
33.1681	31.94
33.1783	32.07
33.1885	32.81
33.1986	32.49
33.2088	32.77
33.2189	32.55
33.2291	32.79
33.2393	32.70
33.2494	32.89
33.2596	32.06
33.2698	32.76
33.2799	32.65
33.2901	32.77
33.3003	33.03
33.3104	33.02
33.3206	32.57
33.3308	32.70
33.3409	31.97
33.3511	33.20
33.3613	32.93
33.3714	33.24
33.3816	32.39
33.3917	33.02
33.4019	32.52
33.4121	32.01
33.4222	31.74
33.4324	32.88
33.4426	32.27
33.4527	32.17
33.4629	32.16
33.4731	31.76
33.4832	31.79
33.4934	31.76
33.5036	32.47
33.5137	33.04
33.5239	32.20
33.534	31.87
33.5442	31.17
33.5544	31.41
33.5645	32.08
33.5747	31.67
33.5849	31.34
33.595	31.05
33.6052	30.96
33.6154	31.05
33.6255	31.46
33.6357	31.25
33.6459	31.05
33.656	31.41
33.6662	30.43
33.6764	30.54
33.6865	31.12
33.6967	30.65
33.7068	30.41
33.717	30.16
33.7272	29.96
33.7373	30.41
33.7475	30.27
33.7577	30.10
33.7678	30.11
33.778	29.54
33.7882	29.41
33.7983	30.09
33.8085	29.12
33.8187	29.84
33.8288	29.04
33.839	29.59
33.8491	29.24
33.8593	28.41
33.8695	29.30
33.8796	28.49
33.8898	28.30
33.9	29.76
33.9101	28.24
33.9203	28.30
33.9305	28.29
33.9406	27.39
33.9508	29.18
33.961	28.07
33.9711	28.29
33.9813	29.29
33.9915	27.69
34.0016	28.13
34.0118	27.60
34.0219	27.44
34.0321	28.23
34.0423	27.18
34.0524	27.43
34.0626	27.79
34.0728	27.54
34.0829	27.13
34.0931	27.48
34.1033	28.18
34.1134	27.35
34.1236	27.75
34.1338	27.00
34.1439	26.98
34.1541	27.40
34.1642	27.54
34.1744	26.75
34.1846	26.87
34.1947	27.16
34.2049	26.25
34.2151	26.42
34.2252	27.17
34.2354	26.34
34.2456	26.49
34.2557	27.02
34.2659	25.77
34.2761	26.45
34.2862	26.17
34.2964	26.52
34.3066	26.07
34.3167	26.20
34.3269	26.46
34.337	26.01
34.3472	26.55
34.3574	26.15
34.3675	26.90
34.3777	26.71
34.3879	25.76
34.398	26.46
34.4082	26.16
34.4184	25.99
34.4285	26.24
34.4387	25.79
34.4489	25.79
34.459	25.80
34.4692	26.16
34.4793	26.27
34.4895	25.85
34.4997	25.62
34.5098	25.68
34.52	25.39
34.5302	26.56
34.5403	25.49
34.5505	25.10
34.5607	25.79
34.5708	25.40
34.581	25.93
34.5912	25.77
34.6013	25.66
34.6115	25.40
34.6217	26.68
34.6318	26.07
34.642	24.70
34.6521	24.98
34.6623	25.48
34.6725	25.63
34.6826	25.18
34.6928	25.42
34.703	26.27
34.7131	25.51
34.7233	25.43
34.7335	25.19
34.7436	25.15
34.7538	24.90
34.764	25.00
34.7741	25.73
34.7843	25.31
34.7944	25.43
34.8046	24.85
34.8148	24.07
34.8249	25.29
34.8351	24.66
34.8453	25.34
34.8554	24.65
34.8656	24.86
34.8758	24.70
34.8859	25.01
34.8961	24.95
34.9063	25.29
34.9164	24.20
34.9266	25.32
34.9367	24.32
34.9469	25.88
34.9571	24.44
34.9672	25.10
34.9774	24.93
34.9876	25.27
34.9977	25.05
35.0079	24.85
35.0181	24.54
35.0282	24.83
35.0384	24.91
35.0486	24.91
35.0587	24.92
35.0689	24.30
35.0791	25.35
35.0892	24.87
35.0994	24.70
35.1095	25.15
35.1197	24.31
35.1299	25.02
35.14	24.54
35.1502	25.04
35.1604	24.90
35.1705	24.52
35.1807	24.42
35.1909	25.24
35.201	24.82
35.2112	24.99
35.2214	24.88
35.2315	24.91
35.2417	25.09
35.2518	24.01
35.262	24.80
35.2722	24.09
35.2823	24.82
35.2925	24.66
35.3027	24.50
35.3128	24.70
35.323	23.68
35.3332	24.53
35.3433	24.66
35.3535	24.88
35.3637	24.18
35.3738	24.48
35.384	24.49
35.3942	24.43
35.4043	24.65
35.4145	24.85
35.4246	23.90
35.4348	24.34
35.445	24.49
35.4551	24.53
35.4653	24.39
35.4755	24.30
35.4856	23.75
35.4958	24.20
35.506	24.72
35.5161	24.07
35.5263	23.68
35.5365	24.77
35.5466	23.95
35.5568	23.71
35.5669	24.29
35.5771	24.48
35.5873	24.23
35.5974	24.31
35.6076	24.16
35.6178	24.64
35.6279	24.55
35.6381	24.87
35.6483	24.14
35.6584	24.20
35.6686	24.30
35.6788	24.64
35.6889	23.54
35.6991	24.07
35.7093	24.61
35.7194	24.48
35.7296	23.78
35.7397	23.82
35.7499	24.52
35.7601	23.98
35.7702	24.31
35.7804	24.16
35.7906	24.04
35.8007	23.88
35.8109	24.04
35.8211	24.22
35.8312	24.09
35.8414	23.73
35.8516	23.71
35.8617	24.48
35.8719	24.21
35.882	23.53
35.8922	23.94
35.9024	24.73
35.9125	23.91
35.9227	23.57
35.9329	23.68
35.943	23.74
35.9532	23.71
35.9634	24.34
35.9735	23.98
35.9837	24.59
35.9939	24.20
36.004	24.07
36.0142	23.73
36.0244	23.91
36.0345	23.74
36.0447	23.94
36.0548	24.09
36.065	23.76
36.0752	23.87
36.0853	23.73
36.0955	24.02
36.1057	23.22
36.1158	23.49
36.126	23.95
36.1362	23.49
36.1463	23.50
36.1565	23.98
36.1667	24.21
36.1768	23.63
36.187	24.17
36.1971	24.13
36.2073	23.99
36.2175	23.84
36.2276	23.27
36.2378	23.87
36.248	24.42
36.2581	23.96
36.2683	24.71
36.2785	23.53
36.2886	23.78
36.2988	23.71
36.309	23.65
36.3191	23.79
36.3293	24.02
36.3395	22.96
36.3496	24.57
36.3598	23.83
36.3699	23.87
36.3801	24.32
36.3903	24.30
36.4004	24.25
36.4106	23.90
36.4208	24.58
36.4309	23.96
36.4411	24.31
36.4513	23.50
36.4614	24.26
36.4716	24.32
36.4818	24.32
36.4919	24.13
36.5021	24.41
36.5122	23.35
36.5224	22.12
36.5326	23.81
36.5427	24.27
36.5529	24.47
36.5631	23.40
36.5732	23.66
36.5834	23.85
36.5936	24.57
36.6037	23.44
36.6139	24.09
36.6241	24.52
36.6342	24.25
36.6444	23.51
36.6546	24.26
36.6647	24.29
36.6749	24.01
36.685	23.45
36.6952	24.97
36.7054	24.51
36.7155	23.99
36.7257	24.37
36.7359	24.40
36.746	24.35
36.7562	25.25
36.7664	24.57
36.7765	24.73
36.7867	24.24
36.7969	24.29
36.807	24.52
36.8172	24.36
36.8273	24.22
36.8375	24.51
36.8477	24.04
36.8578	24.97
36.868	24.62
36.8782	24.65
36.8883	24.71
36.8985	23.63
36.9087	24.77
36.9188	24.61
36.929	24.81
36.9392	24.38
36.9493	23.77
36.9595	24.55
36.9696	25.04
36.9798	23.95
36.99	24.91
37.0001	25.01
37.0103	25.14
37.0205	25.04
37.0306	24.27
37.0408	24.76
37.051	25.14
37.0611	25.13
37.0713	25.53
37.0815	25.14
37.0916	25.22
37.1018	24.59
37.112	25.27
37.1221	24.88
37.1323	25.15
37.1424	24.76
37.1526	25.79
37.1628	25.77
37.1729	25.62
37.1831	24.91
37.1933	25.15
37.2034	25.25
37.2136	25.23
37.2238	25.79
37.2339	25.90
37.2441	25.38
37.2543	25.76
37.2644	25.73
37.2746	25.59
37.2847	26.12
37.2949	25.68
37.3051	25.22
37.3152	25.42
37.3254	25.84
37.3356	25.49
37.3457	25.85
37.3559	25.79
37.3661	25.80
37.3762	25.79
37.3864	24.76
37.3966	26.30
37.4067	26.24
37.4169	26.34
37.4271	25.90
37.4372	26.34
37.4474	25.70
37.4575	26.09
37.4677	26.26
37.4779	25.85
37.488	26.40
37.4982	26.68
37.5084	26.46
37.5185	26.63
37.5287	25.41
37.5389	26.29
37.549	26.20
37.5592	25.57
37.5694	25.84
37.5795	26.01
37.5897	26.17
37.5998	26.19
37.61	26.10
37.6202	26.69
37.6303	26.62
37.6405	26.63
37.6507	27.42
37.6608	26.80
37.671	26.24
37.6812	26.95
37.6913	25.66
37.7015	26.85
37.7117	26.70
37.7218	27.67
37.732	27.08
37.7422	27.05
37.7523	26.93
37.7625	26.51
37.7726	27.55
37.7828	27.55
37.793	27.74
37.8031	27.67
37.8133	27.49
37.8235	27.18
37.8336	27.61
37.8438	27.73
37.854	28.06
37.8641	27.37
37.8743	27.47
37.8845	27.98
37.8946	27.18
37.9048	27.80
37.9149	27.57
37.9251	28.17
37.9353	27.90
37.9454	28.30
37.9556	28.51
37.9658	28.09
37.9759	27.87
37.9861	27.99
37.9963	28.65
38.0064	28.52
38.0166	28.02
38.0268	29.41
38.0369	28.80
38.0471	28.81
38.0573	29.29
38.0674	28.71
38.0776	29.01
38.0877	29.76
38.0979	29.79
38.1081	28.30
38.1182	29.86
38.1284	29.46
38.1386	29.60
38.1487	29.52
38.1589	29.01
38.1691	29.29
38.1792	29.26
38.1894	29.73
38.1996	29.72
38.2097	29.74
38.2199	30.51
38.23	28.80
38.2402	29.43
38.2504	29.86
38.2605	29.22
38.2707	29.96
38.2809	29.25
38.291	29.74
38.3012	30.63
38.3114	29.95
38.3215	29.68
38.3317	30.27
38.3419	29.65
38.352	31.10
38.3622	30.97
38.3724	30.32
38.3825	30.23
38.3927	30.74
38.4028	30.75
38.413	30.59
38.4232	30.71
38.4333	30.64
38.4435	30.17
38.4537	30.83
38.4638	30.91
38.474	30.38
38.4842	30.37
38.4943	31.10
38.5045	30.89
38.5147	30.34
38.5248	30.66
38.535	31.04
38.5451	30.18
38.5553	30.64
38.5655	30.85
38.5756	30.43
38.5858	30.98
38.596	30.68
38.6061	30.68
38.6163	30.43
38.6265	30.87
38.6366	31.65
38.6468	30.19
38.657	31.11
38.6671	30.78
38.6773	30.10
38.6875	30.36
38.6976	30.76
38.7078	31.25
38.7179	30.55
38.7281	30.34
38.7383	30.59
38.7484	30.46
38.7586	31.32
38.7688	30.63
38.7789	30.71
38.7891	30.12
38.7993	30.70
38.8094	30.48
38.8196	30.57
38.8298	30.82
38.8399	30.43
38.8501	30.51
38.8602	30.05
38.8704	31.07
38.8806	29.87
38.8907	30.58
38.9009	30.24
38.9111	30.65
38.9212	29.93
38.9314	30.10
38.9416	29.99
38.9517	29.42
38.9619	28.49
38.9721	29.74
38.9822	29.76
38.9924	28.78
39.0025	29.87
39.0127	29.07
39.0229	30.17
39.033	30.23
39.0432	28.98
39.0534	29.44
39.0635	28.41
39.0737	29.83
39.0839	29.30
39.094	29.54
39.1042	29.52
39.1144	29.16
39.1245	28.84
39.1347	29.05
39.1449	29.21
39.155	28.53
39.1652	29.05
39.1753	28.53
39.1855	28.66
39.1957	28.57
39.2058	27.33
39.216	28.67
39.2262	28.33
39.2363	28.38
39.2465	28.40
39.2567	27.79
39.2668	28.80
39.277	28.01
39.2872	28.35
39.2973	27.94
39.3075	28.57
39.3176	28.16
39.3278	28.13
39.338	27.70
39.3481	28.00
39.3583	27.91
39.3685	27.90
39.3786	27.87
39.3888	27.15
39.399	27.39
39.4091	26.99
39.4193	26.91
39.4295	27.38
39.4396	27.34
39.4498	27.55
39.46	26.79
39.4701	27.09
39.4803	27.34
39.4904	27.24
39.5006	26.69
39.5108	26.98
39.5209	27.56
39.5311	26.18
39.5413	27.87
39.5514	25.55
39.5616	26.74
39.5718	26.30
39.5819	26.63
39.5921	26.67
39.6023	26.61
39.6124	26.41
39.6226	25.93
39.6327	26.73
39.6429	26.60
39.6531	25.42
39.6632	26.23
39.6734	26.18
39.6836	26.29
39.6937	26.82
39.7039	25.61
39.7141	25.43
39.7242	26.01
39.7344	25.82
39.7446	25.79
39.7547	26.18
39.7649	26.38
39.7751	26.09
39.7852	24.93
39.7954	25.73
39.8055	26.40
39.8157	26.14
39.8259	25.93
39.836	24.82
39.8462	25.04
39.8564	25.65
39.8665	25.49
39.8767	25.46
39.8869	25.12
39.897	25.94
39.9072	25.03
39.9174	25.29
39.9275	25.44
39.9377	25.39
39.9478	24.88
39.958	24.64
39.9682	25.91
39.9783	25.82
39.9885	25.35
39.9987	24.68
40.0088	25.18
