5.0023	46.77
5.0125	45.52
5.0226	46.27
5.0328	44.95
5.043	45.32
5.0531	43.60
5.0633	43.26
5.0735	42.41
5.0836	43.00
5.0938	41.46
5.1039	40.40
5.1141	41.25
5.1243	40.59
5.1344	40.08
5.1446	39.51
5.1548	38.40
5.1649	39.40
5.1751	38.37
5.1853	37.40
5.1954	36.80
5.2056	36.94
5.2158	36.26
5.2259	35.96
5.2361	35.88
5.2462	34.97
5.2564	34.87
5.2666	34.52
5.2767	34.11
5.2869	32.96
5.2971	33.42
5.3072	31.41
5.3174	32.04
5.3276	32.96
5.3377	31.02
5.3479	30.95
5.3581	30.50
5.3682	31.34
5.3784	31.45
5.3886	30.15
5.3987	30.33
5.4089	30.48
5.419	29.42
5.4292	29.24
5.4394	29.10
5.4495	29.30
5.4597	28.70
5.4699	27.90
5.48	27.71
5.4902	28.12
5.5004	26.84
5.5105	27.33
5.5207	27.38
5.5309	26.54
5.541	26.85
5.5512	25.71
5.5613	26.48
5.5715	25.68
5.5817	25.97
5.5918	25.70
5.602	26.01
5.6122	24.45
5.6223	25.81
5.6325	25.04
5.6427	25.07
5.6528	24.99
5.663	25.02
5.6732	24.33
5.6833	24.90
5.6935	25.40
5.7036	23.81
5.7138	23.74
5.724	24.30
5.7341	23.55
5.7443	23.49
5.7545	24.09
5.7646	24.35
5.7748	24.20
5.785	23.49
5.7951	23.37
5.8053	23.34
5.8155	23.70
5.8256	23.29
5.8358	22.69
5.846	23.94
5.8561	22.78
5.8663	22.02
5.8764	22.88
5.8866	23.25
5.8968	23.32
5.9069	23.06
5.9171	22.59
5.9273	22.73
5.9374	22.90
5.9476	23.12
5.9578	23.16
5.9679	22.66
5.9781	23.48
5.9883	22.99
5.9984	22.81
6.0086	23.65
6.0187	23.15
6.0289	22.86
6.0391	23.38
6.0492	22.68
6.0594	22.41
6.0696	22.57
6.0797	23.20
6.0899	22.85
6.1001	22.93
6.1102	23.05
6.1204	22.81
6.1306	22.61
6.1407	23.54
6.1509	22.57
6.1611	23.04
6.1712	22.39
6.1814	24.05
6.1915	23.08
6.2017	22.61
6.2119	22.85
6.222	22.86
6.2322	22.53
6.2424	22.82
6.2525	22.62
6.2627	22.86
6.2729	23.48
6.283	22.79
6.2932	22.65
6.3034	23.24
6.3135	22.30
6.3237	22.90
6.3338	22.96
6.344	22.98
6.3542	22.47
6.3643	22.98
6.3745	23.49
6.3847	22.48
6.3948	23.05
6.405	23.04
6.4152	23.36
6.4253	22.90
6.4355	22.51
6.4457	23.39
6.4558	22.80
6.466	22.88
6.4762	23.49
6.4863	23.51
6.4965	22.55
6.5066	23.13
6.5168	22.87
6.527	23.77
6.5371	23.70
6.5473	23.57
6.5575	23.68
6.5676	23.16
6.5778	22.71
6.588	24.29
6.5981	23.04
6.6083	23.35
6.6185	24.07
6.6286	23.62
6.6388	24.23
6.6489	23.67
6.6591	23.75
6.6693	23.15
6.6794	23.34
6.6896	23.30
6.6998	23.34
6.7099	23.66
6.7201	23.75
6.7303	23.73
6.7404	24.12
6.7506	23.84
6.7608	23.84
6.7709	23.76
6.7811	24.15
6.7913	23.82
6.8014	24.76
6.8116	24.29
6.8217	23.79
6.8319	23.65
6.8421	24.41
6.8522	25.16
6.8624	23.97
6.8726	23.59
6.8827	24.02
6.8929	24.29
6.9031	24.51
6.9132	24.98
6.9234	24.83
6.9336	24.60
6.9437	24.85
6.9539	24.39
6.964	23.88
6.9742	24.49
6.9844	25.18
6.9945	24.48
7.0047	25.18
7.0149	24.22
7.025	24.59
7.0352	25.42
7.0454	25.48
7.0555	24.27
7.0657	25.16
7.0759	24.56
7.086	24.74
7.0962	24.52
7.1064	25.32
7.1165	25.13
7.1267	24.91
7.1368	25.29
7.147	25.29
7.1572	25.75
7.1673	25.55
7.1775	25.38
7.1877	26.37
7.1978	25.45
7.208	25.33
7.2182	25.78
7.2283	25.13
7.2385	25.74
7.2487	26.26
7.2588	26.50
7.269	25.13
7.2791	26.19
7.2893	25.47
7.2995	26.55
7.3096	26.26
7.3198	26.24
7.33	25.84
7.3401	25.95
7.3503	26.34
7.3605	25.79
7.3706	25.82
7.3808	26.34
7.391	26.18
7.4011	26.37
7.4113	25.47
7.4215	25.85
7.4316	26.73
7.4418	26.33
7.4519	25.41
7.4621	25.96
7.4723	26.24
7.4824	26.92
7.4926	26.48
7.5028	25.96
7.5129	26.09
7.5231	25.96
7.5333	26.07
7.5434	25.91
7.5536	25.82
7.5638	25.70
7.5739	26.60
7.5841	26.37
7.5942	26.47
7.6044	25.98
7.6146	27.14
7.6247	26.51
7.6349	26.20
7.6451	27.02
7.6552	26.40
7.6654	27.17
7.6756	27.91
7.6857	27.36
7.6959	27.63
7.7061	27.17
7.7162	26.55
7.7264	26.98
7.7365	25.91
7.7467	26.50
7.7569	26.87
7.767	27.30
7.7772	26.96
7.7874	27.61
7.7975	27.66
7.8077	26.91
7.8179	27.96
7.828	26.82
7.8382	27.65
7.8484	26.63
7.8585	27.82
7.8687	27.33
7.8789	26.87
7.889	27.51
7.8992	27.72
7.9093	26.87
7.9195	27.28
7.9297	28.19
7.9398	27.24
7.95	27.92
7.9602	27.65
7.9703	28.19
7.9805	27.15
7.9907	28.32
8.0008	27.53
8.011	28.05
8.0212	27.74
8.0313	27.46
8.0415	28.71
8.0516	27.37
8.0618	27.80
8.072	27.97
8.0821	28.28
8.0923	28.41
8.1025	27.93
8.1126	28.49
8.1228	28.10
8.133	28.63
8.1431	27.45
8.1533	27.60
8.1635	28.07
8.1736	29.21
8.1838	28.88
8.194	28.73
8.2041	28.64
8.2143	28.01
8.2244	28.95
8.2346	28.80
8.2448	28.21
8.2549	28.90
8.2651	28.99
8.2753	28.97
8.2854	28.52
8.2956	28.13
8.3058	28.41
8.3159	29.34
8.3261	29.21
8.3363	29.16
8.3464	27.98
8.3566	29.16
8.3667	29.13
8.3769	28.64
8.3871	29.84
8.3972	28.73
8.4074	29.10
8.4176	29.40
8.4277	28.96
8.4379	29.07
8.4481	29.63
8.4582	28.38
8.4684	29.21
8.4786	29.99
8.4887	29.02
8.4989	29.26
8.5091	29.65
8.5192	29.74
8.5294	29.16
8.5395	29.32
8.5497	29.31
8.5599	29.62
8.57	29.89
8.5802	30.41
8.5904	29.04
8.6005	29.74
8.6107	29.46
8.6209	29.56
8.631	29.91
8.6412	29.35
8.6514	29.65
8.6615	30.30
8.6717	29.85
8.6818	29.79
8.692	30.74
8.7022	29.70
8.7123	30.07
8.7225	29.10
8.7327	28.86
8.7428	30.23
8.753	30.04
8.7632	29.54
8.7733	30.84
8.7835	30.46
8.7937	30.18
8.8038	30.51
8.814	30.36
8.8242	30.01
8.8343	29.65
8.8445	30.49
8.8546	30.46
8.8648	30.08
8.875	31.06
8.8851	30.39
8.8953	30.63
8.9055	29.84
8.9156	30.21
8.9258	30.51
8.936	29.82
8.9461	30.36
8.9563	30.63
8.9665	31.11
8.9766	30.71
8.9868	31.18
8.9969	30.87
9.0071	30.83
9.0173	31.07
9.0274	30.37
9.0376	30.21
9.0478	30.94
9.0579	31.22
9.0681	30.82
9.0783	31.32
9.0884	30.59
9.0986	31.74
9.1088	32.55
9.1189	31.62
9.1291	31.30
9.1393	31.38
9.1494	31.66
9.1596	31.13
9.1697	30.68
9.1799	31.53
9.1901	30.44
9.2002	30.61
9.2104	31.57
9.2206	31.66
9.2307	31.57
9.2409	31.29
9.2511	30.70
9.2612	31.38
9.2714	32.03
9.2816	31.35
9.2917	31.37
9.3019	31.92
9.312	31.49
9.3222	31.41
9.3324	32.26
9.3425	30.92
9.3527	31.80
9.3629	31.51
9.373	31.26
9.3832	32.55
9.3934	32.20
9.4035	31.85
9.4137	31.48
9.4239	31.23
9.434	31.69
9.4442	31.84
9.4544	31.70
9.4645	32.38
9.4747	32.37
9.4848	32.42
9.495	32.28
9.5052	32.68
9.5153	32.09
9.5255	32.36
9.5357	32.55
9.5458	32.80
9.556	32.85
9.5662	32.44
9.5763	32.59
9.5865	31.60
9.5967	31.74
9.6068	32.89
9.617	32.34
9.6271	32.00
9.6373	32.92
9.6475	32.78
9.6576	32.41
9.6678	32.13
9.678	32.50
9.6881	32.74
9.6983	32.56
9.7085	33.34
9.7186	33.48
9.7288	31.98
9.739	32.43
9.7491	33.10
9.7593	32.98
9.7694	32.12
9.7796	33.10
9.7898	32.09
9.7999	32.35
9.8101	32.86
9.8203	33.16
9.8304	33.52
9.8406	33.34
9.8508	32.74
9.8609	33.45
9.8711	32.84
9.8813	33.23
9.8914	33.01
9.9016	33.07
9.9118	32.99
9.9219	32.65
9.9321	33.00
9.9422	32.74
9.9524	32.93
9.9626	33.30
9.9727	33.73
9.9829	32.09
9.9931	32.92
10.0032	32.76
10.0134	32.35
10.0236	32.20
10.0337	33.45
10.0439	32.96
10.0541	33.57
10.0642	33.30
10.0744	34.05
10.0845	33.95
10.0947	33.44
10.1049	34.73
10.115	33.17
10.1252	34.08
10.1354	32.98
10.1455	33.46
10.1557	34.11
10.1659	32.98
10.176	34.20
10.1862	34.45
10.1964	33.82
10.2065	33.64
10.2167	33.45
10.2269	34.13
10.237	33.57
10.2472	34.06
10.2573	33.36
10.2675	33.63
10.2777	33.63
10.2878	33.80
10.298	33.37
10.3082	34.37
10.3183	34.23
10.3285	34.44
10.3387	34.20
10.3488	34.26
10.359	33.77
10.3692	33.77
10.3793	34.28
10.3895	34.12
10.3996	33.08
10.4098	33.19
10.42	35.13
10.4301	34.01
10.4403	34.28
10.4505	34.66
10.4606	34.41
10.4708	34.14
10.481	34.80
10.4911	34.66
10.5013	34.73
10.5115	34.08
10.5216	35.04
10.5318	34.70
10.542	35.10
10.5521	35.17
10.5623	35.21
10.5724	33.70
10.5826	33.93
10.5928	34.49
10.6029	35.01
10.6131	33.96
10.6233	34.73
10.6334	34.75
10.6436	34.66
10.6538	34.65
10.6639	35.51
10.6741	35.30
10.6843	35.09
10.6944	36.05
10.7046	34.50
10.7147	35.46
10.7249	34.84
10.7351	34.67
10.7452	35.65
10.7554	34.34
10.7656	35.60
10.7757	34.99
10.7859	35.15
10.7961	35.34
10.8062	36.13
10.8164	35.52
10.8266	35.23
10.8367	35.91
10.8469	35.70
10.8571	35.75
10.8672	35.90
10.8774	35.67
10.8875	34.34
10.8977	35.94
10.9079	36.18
10.918	35.52
10.9282	35.45
10.9384	36.11
10.9485	36.03
10.9587	36.02
10.9689	36.73
10.979	35.43
10.9892	36.04
10.9994	35.94
11.0095	35.67
11.0197	35.88
11.0298	36.52
11.04	35.59
11.0502	36.18
11.0603	35.85
11.0705	35.82
11.0807	36.19
11.0908	35.12
11.101	35.86
11.1112	36.41
11.1213	36.52
11.1315	36.65
11.1417	35.49
11.1518	35.93
11.162	36.29
11.1722	36.52
11.1823	36.20
11.1925	35.19
11.2026	35.87
11.2128	35.55
11.223	36.71
11.2331	36.73
11.2433	36.51
11.2535	36.83
11.2636	36.63
11.2738	37.34
11.284	37.45
11.2941	36.27
11.3043	37.30
11.3145	37.63
11.3246	36.76
11.3348	37.05
11.3449	37.62
11.3551	37.46
11.3653	36.47
11.3754	37.36
11.3856	38.01
11.3958	35.79
11.4059	36.96
11.4161	36.87
11.4263	36.82
11.4364	37.04
11.4466	36.09
11.4568	37.67
11.4669	37.79
11.4771	36.45
11.4873	37.47
11.4974	37.47
11.5076	38.01
11.5177	37.18
11.5279	36.99
11.5381	36.91
11.5482	37.60
11.5584	37.32
11.5686	37.18
11.5787	38.10
11.5889	38.13
11.5991	37.85
11.6092	37.65
11.6194	36.92
11.6296	38.68
11.6397	38.29
11.6499	37.15
11.66	37.85
11.6702	38.29
11.6804	37.59
11.6905	37.37
11.7007	38.18
11.7109	38.14
11.721	37.76
11.7312	37.38
11.7414	37.60
11.7515	39.03
11.7617	38.40
11.7719	38.75
11.782	38.88
11.7922	38.95
11.8023	38.77
11.8125	37.91
11.8227	38.49
11.8328	37.97
11.843	38.34
11.8532	38.67
11.8633	38.56
11.8735	38.46
11.8837	38.63
11.8938	37.96
11.904	39.40
11.9142	38.81
11.9243	38.77
11.9345	38.99
11.9447	39.52
11.9548	38.02
11.965	39.50
11.9751	38.34
11.9853	38.13
11.9955	39.04
12.0056	39.52
12.0158	38.82
12.026	39.82
12.0361	39.95
12.0463	39.71
12.0565	38.60
12.0666	38.73
12.0768	39.21
12.087	38.81
12.0971	38.91
12.1073	39.68
12.1174	38.93
12.1276	39.93
12.1378	39.14
12.1479	40.26
12.1581	38.90
12.1683	40.27
12.1784	40.01
12.1886	39.24
12.1988	39.48
12.2089	39.66
12.2191	39.86
12.2293	40.41
12.2394	39.23
12.2496	40.06
12.2598	40.78
12.2699	40.84
12.2801	40.29
12.2902	40.45
12.3004	40.63
12.3106	39.71
12.3207	40.22
12.3309	41.46
12.3411	40.65
12.3512	40.63
12.3614	40.70
12.3716	38.98
12.3817	40.28
12.3919	41.06
12.4021	40.49
12.4122	40.94
12.4224	41.40
12.4325	40.95
12.4427	41.07
12.4529	39.93
12.463	41.27
12.4732	41.42
12.4834	41.60
12.4935	40.81
12.5037	41.05
12.5139	41.65
12.524	42.28
12.5342	40.24
12.5444	41.48
12.5545	42.26
12.5647	42.10
12.5749	42.04
12.585	41.41
12.5952	42.27
12.6053	41.10
12.6155	42.32
12.6257	41.41
12.6358	42.03
12.646	41.79
12.6562	42.43
12.6663	41.84
12.6765	41.68
12.6867	41.85
12.6968	43.05
12.707	42.12
12.7172	42.45
12.7273	42.53
12.7375	42.87
12.7476	42.30
12.7578	42.60
12.768	43.90
12.7781	43.16
12.7883	42.05
12.7985	42.87
12.8086	42.37
12.8188	43.76
12.829	43.48
12.8391	42.59
12.8493	42.85
12.8595	42.26
12.8696	43.16
12.8798	43.59
12.89	42.76
12.9001	43.20
12.9103	43.52
12.9204	43.94
12.9306	44.19
12.9408	43.84
12.9509	44.13
12.9611	44.55
12.9713	43.29
12.9814	43.40
12.9916	43.44
13.0018	44.34
13.0119	45.90
13.0221	43.84
13.0323	44.10
13.0424	44.41
13.0526	42.81
13.0627	44.79
13.0729	44.15
13.0831	43.81
13.0932	44.62
13.1034	44.35
13.1136	44.85
13.1237	43.54
13.1339	45.40
13.1441	44.36
13.1542	44.54
13.1644	44.95
13.1746	44.95
13.1847	45.54
13.1949	45.91
13.2051	45.16
13.2152	44.79
13.2254	44.50
13.2355	45.16
13.2457	45.60
13.2559	44.70
13.266	45.56
13.2762	45.41
13.2864	44.45
13.2965	45.73
13.3067	45.92
13.3169	44.97
13.327	45.81
13.3372	45.95
13.3474	47.02
13.3575	46.34
13.3677	46.27
13.3778	46.66
13.388	47.12
13.3982	48.17
13.4083	45.76
13.4185	46.73
13.4287	46.79
13.4388	46.80
13.449	46.76
13.4592	47.05
13.4693	47.24
13.4795	47.52
13.4897	47.02
13.4998	47.46
13.51	47.91
13.5201	48.96
13.5303	47.13
13.5405	48.60
13.5506	48.37
13.5608	47.57
13.571	47.77
13.5811	48.46
13.5913	48.29
13.6015	48.52
13.6116	48.30
13.6218	47.08
13.632	47.33
13.6421	48.30
13.6523	49.08
13.6625	47.93
13.6726	50.51
13.6828	48.41
13.6929	47.87
13.7031	50.19
13.7133	48.84
13.7234	47.89
13.7336	50.25
13.7438	49.01
13.7539	48.55
13.7641	50.54
13.7743	49.63
13.7844	49.80
13.7946	50.06
13.8048	49.79
13.8149	50.09
13.8251	49.06
13.8352	49.96
13.8454	50.02
13.8556	50.26
13.8657	50.58
13.8759	49.98
13.8861	51.24
13.8962	50.10
13.9064	50.35
13.9166	50.82
13.9267	50.24
13.9369	52.05
13.9471	50.82
13.9572	51.98
13.9674	50.41
13.9776	52.27
13.9877	51.45
13.9979	52.10
14.008	51.20
14.0182	51.51
14.0284	52.63
14.0385	51.51
14.0487	52.72
14.0589	51.83
14.069	53.16
14.0792	52.51
14.0894	52.48
14.0995	53.32
14.1097	51.94
14.1199	52.52
14.13	53.46
14.1402	53.61
14.1503	53.63
14.1605	51.37
14.1707	53.78
14.1808	53.71
14.191	53.46
14.2012	53.05
14.2113	53.78
14.2215	52.84
14.2317	53.20
14.2418	54.32
14.252	53.53
14.2622	55.14
14.2723	52.46
14.2825	54.00
14.2927	53.09
14.3028	54.55
14.313	55.21
14.3231	55.60
14.3333	55.19
14.3435	55.79
14.3536	55.26
14.3638	55.08
14.374	55.45
14.3841	55.89
14.3943	55.00
14.4045	55.23
14.4146	55.62
14.4248	55.97
14.435	57.16
14.4451	56.04
14.4553	55.28
14.4654	56.45
14.4756	56.38
14.4858	55.95
14.4959	57.16
14.5061	56.12
14.5163	56.98
14.5264	56.91
14.5366	56.34
14.5468	55.37
14.5569	56.45
14.5671	57.49
14.5773	57.18
14.5874	57.61
14.5976	58.94
14.6078	57.23
14.6179	58.00
14.6281	57.17
14.6382	58.27
14.6484	57.71
14.6586	56.66
14.6687	58.42
14.6789	59.18
14.6891	59.53
14.6992	58.01
14.7094	58.45
14.7196	58.80
14.7297	59.11
14.7399	59.39
14.7501	59.07
14.7602	59.74
14.7704	60.82
14.7805	60.30
14.7907	59.82
14.8009	61.10
14.811	61.01
14.8212	60.47
14.8314	61.03
14.8415	61.63
14.8517	59.93
14.8619	60.80
14.872	60.13
14.8822	61.77
14.8924	62.27
14.9025	61.13
14.9127	61.08
14.9229	62.62
14.933	61.55
14.9432	62.41
14.9533	62.42
14.9635	62.13
14.9737	62.32
14.9838	63.92
14.994	61.42
15.0042	63.57
15.0143	63.65
15.0245	63.19
15.0347	62.99
15.0448	62.75
15.055	62.55
15.0652	63.84
15.0753	64.07
15.0855	64.62
15.0956	64.77
15.1058	65.27
15.116	64.05
15.1261	64.77
15.1363	64.04
15.1465	65.07
15.1566	64.22
15.1668	64.86
15.177	65.23
15.1871	64.74
15.1973	66.37
15.2075	64.13
15.2176	66.02
15.2278	66.91
15.238	65.71
15.2481	66.21
15.2583	65.89
15.2684	66.15
15.2786	67.04
15.2888	67.90
15.2989	66.71
15.3091	68.56
15.3193	66.96
15.3294	67.12
15.3396	68.26
15.3498	66.96
15.3599	66.76
15.3701	67.77
15.3803	67.94
15.3904	68.40
15.4006	68.29
15.4107	69.51
15.4209	68.89
15.4311	68.53
15.4412	68.79
15.4514	68.97
15.4616	68.56
15.4717	70.13
15.4819	68.58
15.4921	68.44
15.5022	70.84
15.5124	70.02
15.5226	70.51
15.5327	70.38
15.5429	69.22
15.553	71.23
15.5632	71.81
15.5734	71.55
15.5835	71.07
15.5937	71.19
15.6039	70.49
15.614	71.26
15.6242	72.04
15.6344	71.90
15.6445	72.16
15.6547	72.05
15.6649	70.85
15.675	72.78
15.6852	73.49
15.6954	72.07
15.7055	71.66
15.7157	74.04
15.7258	73.61
15.736	73.46
15.7462	73.76
15.7563	74.41
15.7665	74.06
15.7767	74.33
15.7868	74.71
15.797	75.16
15.8072	75.48
15.8173	74.00
15.8275	74.43
15.8377	76.37
15.8478	75.72
15.858	75.56
15.8681	76.87
15.8783	76.13
15.8885	75.66
15.8986	77.40
15.9088	76.51
15.919	76.26
15.9291	76.46
15.9393	78.12
15.9495	78.01
15.9596	78.77
15.9698	76.34
15.98	77.74
15.9901	78.09
16.0003	76.81
16.0105	76.66
16.0206	78.59
16.0308	78.21
16.0409	78.24
16.0511	78.85
16.0613	77.66
16.0714	79.62
16.0816	79.46
16.0918	78.65
16.1019	80.43
16.1121	79.74
16.1223	79.15
16.1324	80.38
16.1426	79.05
16.1528	80.56
16.1629	80.52
16.1731	81.97
16.1832	81.03
16.1934	80.04
16.2036	83.30
16.2137	81.13
16.2239	82.24
16.2341	81.16
16.2442	81.09
16.2544	82.07
16.2646	83.77
16.2747	81.83
16.2849	84.84
16.2951	83.60
16.3052	83.38
16.3154	83.21
16.3256	84.29
16.3357	84.99
16.3459	84.37
16.356	83.66
16.3662	84.49
16.3764	85.82
16.3865	86.67
16.3967	85.19
16.4069	86.09
16.417	86.63
16.4272	84.68
16.4374	85.56
16.4475	85.90
16.4577	86.78
16.4679	85.91
16.478	87.29
16.4882	87.02
16.4983	87.15
16.5085	88.37
16.5187	87.86
16.5288	86.73
16.539	89.31
16.5492	89.04
16.5593	86.97
16.5695	88.20
16.5797	90.13
16.5898	89.48
16.6	88.88
16.6102	88.41
16.6203	89.07
16.6305	91.41
16.6407	91.32
16.6508	89.02
16.661	92.70
16.6711	90.39
16.6813	91.09
16.6915	91.54
16.7016	92.41
16.7118	92.47
16.722	91.10
16.7321	92.48
16.7423	92.79
16.7525	93.22
16.7626	91.82
16.7728	93.78
16.783	93.80
16.7931	92.68
16.8033	95.54
16.8134	94.96
16.8236	94.32
16.8338	94.73
16.8439	95.80
16.8541	94.70
16.8643	96.54
16.8744	95.11
16.8846	95.12
16.8948	96.07
16.9049	96.74
16.9151	96.62
16.9253	97.71
16.9354	97.07
16.9456	96.43
16.9558	98.51
16.9659	99.10
16.9761	97.96
16.9862	98.03
16.9964	99.52
17.0066	99.64
17.0167	97.95
17.0269	99.99
17.0371	98.01
17.0472	98.21
17.0574	102.35
17.0676	99.88
17.0777	100.76
17.0879	100.66
17.0981	100.76
17.1082	100.59
17.1184	100.93
17.1285	101.44
17.1387	100.90
17.1489	101.49
17.159	100.68
17.1692	101.96
17.1794	103.32
17.1895	102.09
17.1997	103.79
17.2099	103.97
17.22	101.47
17.2302	103.38
17.2404	104.60
17.2505	103.65
17.2607	104.45
17.2709	104.07
17.281	104.24
17.2912	104.18
17.3013	104.42
17.3115	104.27
17.3217	104.73
17.3318	105.27
17.342	104.86
17.3522	106.71
17.3623	105.97
17.3725	104.62
17.3827	106.01
17.3928	107.52
17.403	106.39
17.4132	107.65
17.4233	106.80
17.4335	106.09
17.4436	106.31
17.4538	109.52
17.464	106.57
17.4741	108.20
17.4843	108.88
17.4945	107.32
17.5046	106.96
17.5148	109.31
17.525	110.80
17.5351	108.67
17.5453	110.26
17.5555	109.89
17.5656	111.32
17.5758	112.09
17.5859	111.45
17.5961	111.16
17.6063	111.98
17.6164	112.63
17.6266	112.73
17.6368	113.01
17.6469	112.34
17.6571	114.48
17.6673	113.61
17.6774	112.10
17.6876	115.26
17.6978	115.37
17.7079	114.96
17.7181	115.54
17.7283	115.13
17.7384	115.95
17.7486	116.82
17.7587	116.85
17.7689	117.11
17.7791	117.05
17.7892	116.70
17.7994	116.45
17.8096	119.12
17.8197	118.48
17.8299	119.24
17.8401	119.33
17.8502	121.40
17.8604	119.23
17.8706	119.88
17.8807	121.98
17.8909	120.29
17.901	121.34
17.9112	123.16
17.9214	121.60
17.9315	123.18
17.9417	125.02
17.9519	123.93
17.962	124.56
17.9722	123.76
17.9824	127.35
17.9925	126.21
18.0027	127.90
18.0129	127.60
18.023	128.30
18.0332	128.56
18.0434	130.65
18.0535	128.70
18.0637	129.66
18.0738	129.80
18.084	131.41
18.0942	133.32
18.1043	135.35
18.1145	132.87
18.1247	135.66
18.1348	132.57
18.145	135.09
18.1552	136.83
18.1653	138.64
18.1755	138.91
18.1857	140.26
18.1958	140.50
18.206	140.49
18.2161	143.38
18.2263	143.62
18.2365	141.32
18.2466	146.53
18.2568	145.34
18.267	147.55
18.2771	149.01
18.2873	149.28
18.2975	149.35
18.3076	151.37
18.3178	153.99
18.328	154.21
18.3381	155.27
18.3483	157.51
18.3585	157.94
18.3686	161.38
18.3788	164.73
18.3889	162.31
18.3991	167.67
18.4093	167.10
18.4194	169.04
18.4296	172.67
18.4398	174.16
18.4499	173.59
18.4601	176.07
18.4703	180.37
18.4804	178.40
18.4906	185.09
18.5008	185.72
18.5109	188.32
18.5211	191.23
18.5312	192.77
18.5414	192.77
18.5516	197.21
18.5617	200.79
18.5719	202.81
18.5821	206.87
18.5922	207.57
18.6024	208.25
18.6126	211.16
18.6227	216.12
18.6329	215.76
18.6431	221.67
18.6532	223.58
18.6634	221.95
18.6736	227.37
18.6837	229.87
18.6939	231.28
18.704	236.27
18.7142	237.57
18.7244	240.75
18.7345	240.67
18.7447	246.46
18.7549	246.25
18.765	248.59
18.7752	251.40
18.7854	252.73
18.7955	255.38
18.8057	257.24
18.8159	253.27
18.826	258.27
18.8362	258.84
18.8463	259.90
18.8565	262.90
18.8667	262.20
18.8768	260.04
18.887	260.12
18.8972	261.60
18.9073	254.94
18.9175	260.87
18.9277	261.81
18.9378	259.09
18.948	260.16
18.9582	259.32
18.9683	257.26
18.9785	258.19
18.9887	256.29
18.9988	252.57
19.009	252.12
19.0191	251.13
19.0293	246.59
19.0395	248.85
19.0496	245.21
19.0598	244.36
19.07	241.75
19.0801	240.46
19.0903	236.41
19.1005	235.55
19.1106	232.98
19.1208	230.05
19.131	225.35
19.1411	225.45
19.1513	221.99
19.1614	221.65
19.1716	218.68
19.1818	214.75
19.1919	214.96
19.2021	213.15
19.2123	207.67
19.2224	206.80
19.2326	206.30
19.2428	200.26
19.2529	199.37
19.2631	197.98
19.2733	195.70
19.2834	193.10
19.2936	191.12
19.3038	185.69
19.3139	187.93
19.3241	187.77
19.3342	183.23
19.3444	182.96
19.3546	182.27
19.3647	178.43
19.3749	176.49
19.3851	173.88
19.3952	174.95
19.4054	173.67
19.4156	171.64
19.4257	169.43
19.4359	168.26
19.4461	166.92
19.4562	163.80
19.4664	162.91
19.4765	164.38
19.4867	159.52
19.4969	162.21
19.507	160.97
19.5172	159.83
19.5274	155.41
19.5375	155.85
19.5477	156.38
19.5579	155.27
19.568	151.29
19.5782	152.58
19.5884	153.52
19.5985	151.74
19.6087	149.82
19.6188	148.70
19.629	149.54
19.6392	148.76
19.6493	147.62
19.6595	146.41
19.6697	144.49
19.6798	147.13
19.69	143.76
19.7002	143.49
19.7103	144.35
19.7205	143.43
19.7307	139.73
19.7408	140.88
19.751	140.85
19.7612	139.52
19.7713	140.67
19.7815	141.10
19.7916	138.51
19.8018	139.40
19.812	139.19
19.8221	139.05
19.8323	137.95
19.8425	136.16
19.8526	136.00
19.8628	136.40
19.873	137.63
19.8831	134.98
19.8933	135.73
19.9035	134.46
19.9136	133.20
19.9238	135.09
19.9339	136.05
19.9441	134.89
19.9543	134.62
19.9644	133.54
19.9746	133.82
19.9848	134.71
19.9949	132.09
20.0051	131.87
20.0153	133.61
20.0254	132.79
20.0356	132.18
20.0458	133.65
20.0559	133.86
20.0661	130.84
20.0763	132.60
20.0864	133.60
20.0966	132.93
20.1067	133.20
20.1169	132.26
20.1271	130.39
20.1372	132.15
20.1474	132.05
20.1576	132.27
20.1677	130.95
20.1779	132.80
20.1881	132.11
20.1982	132.88
20.2084	132.66
20.2186	132.34
20.2287	132.47
20.2389	133.30
20.249	132.12
20.2592	133.37
20.2694	134.52
20.2795	131.46
20.2897	132.99
20.2999	134.41
20.31	131.05
20.3202	132.88
20.3304	133.71
20.3405	133.76
20.3507	132.93
20.3609	134.45
20.371	132.74
20.3812	136.25
20.3914	134.68
20.4015	135.41
20.4117	136.23
20.4218	135.65
20.432	136.24
20.4422	137.52
20.4523	136.37
20.4625	136.83
20.4727	137.04
20.4828	138.10
20.493	137.39
20.5032	137.74
20.5133	137.16
20.5235	137.40
20.5337	137.52
20.5438	137.56
20.554	138.24
20.5641	138.92
20.5743	140.07
20.5845	139.13
20.5946	141.28
20.6048	140.15
20.615	138.87
20.6251	140.13
20.6353	140.33
20.6455	140.68
20.6556	141.24
20.6658	142.96
20.676	140.27
20.6861	141.07
20.6963	141.09
20.7065	142.32
20.7166	141.52
20.7268	143.30
20.7369	144.01
20.7471	141.04
20.7573	142.79
20.7674	141.55
20.7776	142.32
20.7878	143.19
20.7979	142.35
20.8081	144.29
20.8183	142.60
20.8284	141.86
20.8386	143.21
20.8488	143.63
20.8589	142.26
20.8691	145.02
20.8792	141.68
20.8894	139.21
20.8996	140.96
20.9097	141.16
20.9199	139.91
20.9301	141.24
20.9402	140.79
20.9504	141.22
20.9606	140.13
20.9707	139.65
20.9809	137.73
20.9911	139.15
21.0012	140.09
21.0114	139.61
21.0216	138.60
21.0317	139.11
21.0419	136.57
21.052	138.66
21.0622	136.09
21.0724	134.90
21.0825	135.89
21.0927	132.63
21.1029	133.43
21.113	134.23
21.1232	134.66
21.1334	132.98
21.1435	132.08
21.1537	132.87
21.1639	132.94
21.174	133.15
21.1842	130.81
21.1943	131.38
21.2045	129.27
21.2147	130.41
21.2248	127.52
21.235	129.83
21.2452	126.70
21.2553	125.98
21.2655	128.14
21.2757	128.11
21.2858	124.90
21.296	125.37
21.3062	124.60
21.3163	124.12
21.3265	124.24
21.3366	125.45
21.3468	122.58
21.357	123.42
21.3671	124.45
21.3773	121.41
21.3875	121.36
21.3976	122.68
21.4078	121.57
21.418	122.35
21.4281	122.82
21.4383	120.21
21.4485	120.41
21.4586	120.53
21.4688	119.55
21.479	118.70
21.4891	120.84
21.4993	119.33
21.5094	120.13
21.5196	120.35
21.5298	120.39
21.5399	120.02
21.5501	119.60
21.5603	118.43
21.5704	119.80
21.5806	120.12
21.5908	118.92
21.6009	118.55
21.6111	119.61
21.6213	118.79
21.6314	117.77
21.6416	118.38
21.6517	118.63
21.6619	119.64
21.6721	119.55
21.6822	119.24
21.6924	119.41
21.7026	118.30
21.7127	118.04
21.7229	119.91
21.7331	119.27
21.7432	120.63
21.7534	120.44
21.7636	119.16
21.7737	120.88
21.7839	122.71
21.7941	120.45
21.8042	122.06
21.8144	122.32
21.8245	121.41
21.8347	121.98
21.8449	124.17
21.855	124.93
21.8652	122.74
21.8754	124.12
21.8855	125.66
21.8957	124.11
21.9059	124.96
21.916	125.29
21.9262	123.88
21.9364	125.55
21.9465	127.35
21.9567	125.20
21.9668	129.30
21.977	127.13
21.9872	125.69
21.9973	127.93
22.0075	128.77
22.0177	127.31
22.0278	128.01
22.038	128.12
22.0482	128.23
22.0583	129.37
22.0685	129.07
22.0787	127.27
22.0888	129.85
22.099	130.26
22.1092	129.99
22.1193	132.85
22.1295	133.44
22.1396	131.16
22.1498	135.11
22.16	134.61
22.1701	133.82
22.1803	135.02
22.1905	135.54
22.2006	134.67
22.2108	136.64
22.221	139.95
22.2311	137.52
22.2413	139.66
22.2515	139.68
22.2616	139.95
22.2718	143.02
22.2819	142.02
22.2921	142.29
22.3023	143.82
22.3124	144.97
22.3226	144.18
22.3328	146.80
22.3429	148.23
22.3531	147.19
22.3633	148.95
22.3734	150.66
22.3836	149.09
22.3938	151.05
22.4039	151.09
22.4141	153.03
22.4243	154.52
22.4344	151.85
22.4446	153.03
22.4547	155.67
22.4649	155.10
22.4751	156.06
22.4852	155.54
22.4954	156.46
22.5056	154.44
22.5157	158.31
22.5259	159.23
22.5361	157.18
22.5462	159.39
22.5564	159.37
22.5666	157.28
22.5767	158.59
22.5869	158.33
22.597	158.04
22.6072	158.74
22.6174	158.25
22.6275	157.93
22.6377	160.09
22.6479	158.98
22.658	158.78
22.6682	159.22
22.6784	158.50
22.6885	157.98
22.6987	159.53
22.7089	158.26
22.719	158.42
22.7292	157.24
22.7394	158.09
22.7495	157.10
22.7597	159.07
22.7698	154.99
22.78	154.64
22.7902	154.47
22.8003	156.46
22.8105	153.70
22.8207	154.74
22.8308	154.63
22.841	150.87
22.8512	153.29
22.8613	151.58
22.8715	151.34
22.8817	150.93
22.8918	149.34
22.902	148.25
22.9121	147.89
22.9223	148.75
22.9325	147.37
22.9426	146.20
22.9528	146.40
22.963	143.74
22.9731	144.31
22.9833	142.65
22.9935	142.93
23.0036	143.28
23.0138	144.14
23.024	140.42
23.0341	139.33
23.0443	140.97
23.0545	136.79
23.0646	135.45
23.0748	136.66
23.0849	135.52
23.0951	133.14
23.1053	135.39
23.1154	130.44
23.1256	134.20
23.1358	130.43
23.1459	129.35
23.1561	127.38
23.1663	127.74
23.1764	128.01
23.1866	126.16
23.1968	127.44
23.2069	125.60
23.2171	123.40
23.2272	124.31
23.2374	124.51
23.2476	122.37
23.2577	121.80
23.2679	120.10
23.2781	120.88
23.2882	118.36
23.2984	118.06
23.3086	118.16
23.3187	116.30
23.3289	115.35
23.3391	113.33
23.3492	114.88
23.3594	114.12
23.3695	114.31
23.3797	112.23
23.3899	111.32
23.4	111.17
23.4102	109.11
23.4204	110.27
23.4305	108.76
23.4407	109.14
23.4509	107.82
23.461	106.88
23.4712	106.52
23.4814	106.45
23.4915	105.98
23.5017	103.24
23.5119	104.15
23.522	103.92
23.5322	102.49
23.5423	102.37
23.5525	101.00
23.5627	100.71
23.5728	101.19
23.583	98.88
23.5932	100.31
23.6033	99.01
23.6135	98.49
23.6237	95.65
23.6338	96.01
23.644	97.20
23.6542	94.73
23.6643	95.52
23.6745	93.12
23.6846	94.20
23.6948	93.61
23.705	93.65
23.7151	93.16
23.7253	92.88
23.7355	92.74
23.7456	91.85
23.7558	90.95
23.766	91.07
23.7761	89.64
23.7863	89.57
23.7965	88.45
23.8066	88.56
23.8168	87.80
23.827	86.23
23.8371	88.26
23.8473	86.33
23.8574	87.71
23.8676	86.27
23.8778	85.41
23.8879	86.27
23.8981	85.23
23.9083	83.73
23.9184	83.50
23.9286	84.21
23.9388	83.13
23.9489	82.63
23.9591	82.62
23.9693	82.66
23.9794	81.86
23.9896	82.16
23.9997	79.88
24.0099	80.42
24.0201	80.87
24.0302	79.46
24.0404	79.89
24.0506	79.57
24.0607	79.66
24.0709	78.04
24.0811	79.49
24.0912	77.32
24.1014	78.88
24.1116	77.97
24.1217	77.88
24.1319	76.68
24.1421	76.62
24.1522	75.51
24.1624	76.94
24.1725	74.71
24.1827	75.43
24.1929	75.32
24.203	74.85
24.2132	74.05
24.2234	75.12
24.2335	74.73
24.2437	74.70
24.2539	72.44
24.264	72.38
24.2742	74.25
24.2844	72.95
24.2945	71.87
24.3047	71.70
24.3148	70.88
24.325	72.06
24.3352	72.90
24.3453	71.57
24.3555	71.67
24.3657	70.29
24.3758	71.79
24.386	69.66
24.3962	70.75
24.4063	69.70
24.4165	69.20
24.4267	69.85
24.4368	68.23
24.447	69.10
24.4572	70.32
24.4673	69.59
24.4775	69.26
24.4876	68.26
24.4978	67.63
24.508	69.46
24.5181	66.48
24.5283	67.82
24.5385	67.87
24.5486	68.18
24.5588	66.93
24.569	66.58
24.5791	66.84
24.5893	66.48
24.5995	66.77
24.6096	67.90
24.6198	66.07
24.6299	66.36
24.6401	65.99
24.6503	64.32
24.6604	65.10
24.6706	64.73
24.6808	64.95
24.6909	64.87
24.7011	64.14
24.7113	64.64
24.7214	64.56
24.7316	65.16
24.7418	63.91
24.7519	64.23
24.7621	65.15
24.7723	63.30
24.7824	64.20
24.7926	64.00
24.8027	63.26
24.8129	63.17
24.8231	62.90
24.8332	63.77
24.8434	62.64
24.8536	63.05
24.8637	62.52
24.8739	61.93
24.8841	63.09
24.8942	62.76
24.9044	62.32
24.9146	63.22
24.9247	61.78
24.9349	61.76
24.945	62.30
24.9552	61.20
24.9654	62.84
24.9755	61.98
24.9857	60.51
24.9959	62.29
25.006	61.01
25.0162	61.32
25.0264	61.54
25.0365	61.49
25.0467	60.77
25.0569	59.69
25.067	59.38
25.0772	61.12
25.0874	60.65
25.0975	61.10
25.1077	60.63
25.1178	59.22
25.128	60.41
25.1382	60.25
25.1483	60.43
25.1585	59.67
25.1687	60.13
25.1788	58.90
25.189	60.04
25.1992	60.38
25.2093	60.33
25.2195	59.40
25.2297	59.40
25.2398	59.60
25.25	59.38
25.2601	58.86
25.2703	58.90
25.2805	58.92
25.2906	59.16
25.3008	57.77
25.311	58.95
25.3211	58.34
25.3313	58.98
25.3415	58.13
25.3516	57.78
25.3618	58.74
25.372	57.84
25.3821	58.91
25.3923	57.75
25.4024	57.69
25.4126	58.28
25.4228	57.86
25.4329	58.36
25.4431	57.97
25.4533	57.76
25.4634	59.05
25.4736	58.12
25.4838	57.70
25.4939	58.07
25.5041	58.05
25.5143	57.56
25.5244	56.59
25.5346	57.85
25.5448	57.64
25.5549	56.78
25.5651	57.54
25.5752	56.75
25.5854	57.16
25.5956	57.18
25.6057	57.06
25.6159	55.65
25.6261	57.11
25.6362	56.21
25.6464	56.99
25.6566	56.35
25.6667	57.05
25.6769	56.49
25.6871	56.60
25.6972	57.09
25.7074	57.02
25.7175	57.01
25.7277	56.99
25.7379	55.66
25.748	56.04
25.7582	57.73
25.7684	55.34
25.7785	56.07
25.7887	55.26
25.7989	55.63
25.809	57.11
25.8192	54.77
25.8294	56.18
25.8395	55.55
25.8497	55.87
25.8599	55.49
25.87	56.07
25.8802	54.73
25.8903	55.31
25.9005	56.34
25.9107	57.72
25.9208	55.81
25.931	55.56
25.9412	55.00
25.9513	55.68
25.9615	54.16
25.9717	55.12
25.9818	55.44
25.992	54.53
26.0022	54.48
26.0123	54.83
26.0225	55.29
26.0326	54.12
26.0428	54.32
26.053	54.12
26.0631	54.78
26.0733	55.12
26.0835	54.56
26.0936	54.41
26.1038	53.49
26.114	54.66
26.1241	53.28
26.1343	53.84
26.1445	53.16
26.1546	54.36
26.1648	54.46
26.175	53.48
26.1851	53.52
26.1953	52.67
26.2054	53.91
26.2156	53.67
26.2258	54.45
26.2359	53.93
26.2461	53.81
26.2563	52.27
26.2664	54.19
26.2766	53.35
26.2868	53.32
26.2969	53.12
26.3071	52.38
26.3173	53.13
26.3274	53.54
26.3376	53.57
26.3477	52.14
26.3579	52.00
26.3681	52.17
26.3782	52.89
26.3884	51.62
26.3986	53.06
26.4087	52.60
26.4189	52.87
26.4291	52.59
26.4392	51.46
26.4494	52.16
26.4596	51.77
26.4697	51.16
26.4799	51.40
26.4901	51.45
26.5002	51.52
26.5104	52.02
26.5205	52.12
26.5307	50.81
26.5409	51.59
26.551	51.98
26.5612	51.65
26.5714	50.91
26.5815	51.77
26.5917	51.54
26.6019	51.27
26.612	50.61
26.6222	50.73
26.6324	52.46
26.6425	51.46
26.6527	51.03
26.6628	50.61
26.673	50.51
26.6832	50.29
26.6933	51.09
26.7035	51.29
26.7137	51.76
26.7238	50.42
26.734	51.27
26.7442	50.05
26.7543	49.67
26.7645	50.05
26.7747	50.48
26.7848	49.70
26.795	49.87
26.8052	51.00
26.8153	50.67
26.8255	49.51
26.8356	49.84
26.8458	50.17
26.856	50.29
26.8661	51.17
26.8763	51.62
26.8865	50.31
26.8966	50.46
26.9068	50.35
26.917	49.39
26.9271	50.38
26.9373	49.52
26.9475	49.95
26.9576	49.41
26.9678	50.73
26.9779	51.05
26.9881	50.37
26.9983	50.39
27.0084	49.60
27.0186	49.02
27.0288	50.37
27.0389	50.26
27.0491	48.93
27.0593	49.45
27.0694	49.30
27.0796	50.29
27.0898	49.37
27.0999	48.64
27.1101	48.21
27.1202	49.55
27.1304	50.03
27.1406	49.23
27.1507	49.51
27.1609	48.28
27.1711	49.63
27.1812	50.08
27.1914	50.33
27.2016	49.18
27.2117	48.97
27.2219	49.09
27.2321	49.90
27.2422	48.10
27.2524	49.37
27.2626	49.16
27.2727	49.33
27.2829	49.85
27.293	49.19
27.3032	49.08
27.3134	48.94
27.3235	49.34
27.3337	49.37
27.3439	49.16
27.354	49.33
27.3642	49.21
27.3744	48.84
27.3845	48.83
27.3947	49.51
27.4049	48.16
27.415	49.32
27.4252	49.23
27.4353	48.84
27.4455	48.80
27.4557	49.50
27.4658	49.01
27.476	50.32
27.4862	48.72
27.4963	48.58
27.5065	48.93
27.5167	50.18
27.5268	49.27
27.537	49.30
27.5472	48.51
27.5573	49.27
27.5675	49.45
27.5777	49.30
27.5878	49.35
27.598	50.05
27.6081	49.13
27.6183	49.43
27.6285	49.89
27.6386	49.81
27.6488	49.27
27.659	49.82
27.6691	50.00
27.6793	48.83
27.6895	48.84
27.6996	49.38
27.7098	49.43
27.72	48.90
27.7301	50.22
27.7403	49.88
27.7504	50.01
27.7606	49.40
27.7708	50.49
27.7809	50.20
27.7911	49.36
27.8013	50.02
27.8114	50.50
27.8216	50.57
27.8318	50.79
27.8419	50.64
27.8521	50.75
27.8623	49.89
27.8724	50.80
27.8826	50.80
27.8928	51.35
27.9029	51.62
27.9131	50.84
27.9232	51.61
27.9334	50.62
27.9436	52.13
27.9537	51.25
27.9639	51.33
27.9741	52.63
27.9842	51.27
27.9944	52.12
28.0046	52.29
28.0147	53.94
28.0249	52.52
28.0351	53.30
28.0452	53.01
28.0554	53.61
28.0655	52.99
28.0757	53.00
28.0859	54.48
28.096	53.13
28.1062	55.97
28.1164	54.21
28.1265	54.52
28.1367	55.34
28.1469	53.76
28.157	55.55
28.1672	54.63
28.1774	55.94
28.1875	57.40
28.1977	56.30
28.2079	56.89
28.218	55.82
28.2282	56.64
28.2383	57.48
28.2485	57.60
28.2587	58.29
28.2688	58.68
28.279	58.64
28.2892	57.68
28.2993	59.86
28.3095	58.43
28.3197	59.10
28.3298	59.10
28.34	59.80
28.3502	60.32
28.3603	60.80
28.3705	61.08
28.3806	61.68
28.3908	60.69
28.401	61.16
28.4111	61.72
28.4213	61.93
28.4315	62.26
28.4416	62.86
28.4518	63.15
28.462	61.98
28.4721	61.83
28.4823	62.54
28.4925	62.90
28.5026	63.59
28.5128	64.63
28.523	65.05
28.5331	64.34
28.5433	64.65
28.5534	64.52
28.5636	65.41
28.5738	66.57
28.5839	65.57
28.5941	66.13
28.6043	67.10
28.6144	66.18
28.6246	66.96
28.6348	66.12
28.6449	66.20
28.6551	67.46
28.6653	66.80
28.6754	66.09
28.6856	67.13
28.6957	67.14
28.7059	67.23
28.7161	67.40
28.7262	67.92
28.7364	67.15
28.7466	67.40
28.7567	67.32
28.7669	66.64
28.7771	67.01
28.7872	67.28
28.7974	66.54
28.8076	67.16
28.8177	67.13
28.8279	67.04
28.8381	65.41
28.8482	65.96
28.8584	65.53
28.8685	65.77
28.8787	65.99
28.8889	65.23
28.899	65.90
28.9092	65.31
28.9194	64.95
28.9295	63.66
28.9397	65.08
28.9499	65.06
28.96	65.40
28.9702	64.89
28.9804	62.66
28.9905	64.65
29.0007	63.85
29.0108	62.26
29.021	62.46
29.0312	62.30
29.0413	62.59
29.0515	62.57
29.0617	62.88
29.0718	61.71
29.082	60.95
29.0922	61.83
29.1023	61.37
29.1125	60.71
29.1227	60.99
29.1328	59.20
29.143	59.85
29.1531	60.77
29.1633	59.88
29.1735	59.18
29.1836	59.71
29.1938	58.19
29.204	57.92
29.2141	57.86
29.2243	58.18
29.2345	57.45
29.2446	58.16
29.2548	56.41
29.265	56.14
29.2751	56.05
29.2853	55.51
29.2955	56.18
29.3056	55.73
29.3158	55.10
29.3259	54.92
29.3361	55.79
29.3463	54.97
29.3564	54.80
29.3666	55.44
29.3768	53.44
29.3869	54.60
29.3971	54.13
29.4073	52.45
29.4174	52.31
29.4276	54.09
29.4378	52.41
29.4479	52.84
29.4581	52.29
29.4682	52.18
29.4784	51.41
29.4886	51.74
29.4987	51.65
29.5089	51.02
29.5191	52.50
29.5292	51.43
29.5394	51.38
29.5496	51.38
29.5597	49.93
29.5699	50.02
29.5801	51.13
29.5902	49.97
29.6004	49.79
29.6106	50.41
29.6207	50.18
29.6309	49.40
29.641	50.83
29.6512	48.57
29.6614	48.58
29.6715	48.68
29.6817	48.57
29.6919	48.80
29.702	48.54
29.7122	47.49
29.7224	48.98
29.7325	47.96
29.7427	47.66
29.7529	47.09
29.763	47.55
29.7732	47.58
29.7833	46.74
29.7935	46.97
29.8037	47.02
29.8138	45.90
29.824	47.85
29.8342	46.98
29.8443	46.10
29.8545	46.23
29.8647	46.13
29.8748	46.73
29.885	46.01
29.8952	44.73
29.9053	45.91
29.9155	47.10
29.9257	45.30
29.9358	46.43
29.946	46.81
29.9561	45.48
29.9663	44.79
29.9765	45.40
29.9866	44.53
29.9968	45.45
30.007	44.93
30.0171	45.87
30.0273	46.40
30.0375	45.12
30.0476	44.73
30.0578	45.76
30.068	45.88
30.0781	45.13
30.0883	45.70
30.0984	44.80
30.1086	44.76
30.1188	44.93
30.1289	44.19
30.1391	44.43
30.1493	44.42
30.1594	44.95
30.1696	43.84
30.1798	43.95
30.1899	44.90
30.2001	43.88
30.2103	43.59
30.2204	43.62
30.2306	43.49
30.2408	43.25
30.2509	43.62
30.2611	43.41
30.2712	43.06
30.2814	43.79
30.2916	42.69
30.3017	42.85
30.3119	43.11
30.3221	42.18
30.3322	42.52
30.3424	42.81
30.3526	42.32
30.3627	41.05
30.3729	42.47
30.3831	43.21
30.3932	42.09
30.4034	42.67
30.4135	41.36
30.4237	41.84
30.4339	42.20
30.444	41.06
30.4542	42.72
30.4644	41.40
30.4745	41.19
30.4847	41.02
30.4949	40.62
30.505	40.74
30.5152	41.65
30.5254	41.11
30.5355	40.70
30.5457	41.80
30.5559	41.07
30.566	40.39
30.5762	40.51
30.5863	39.78
30.5965	40.05
30.6067	39.72
30.6168	40.46
30.627	39.75
30.6372	40.62
30.6473	39.93
30.6575	39.10
30.6677	39.60
30.6778	39.20
30.688	39.01
30.6982	40.29
30.7083	39.68
30.7185	38.83
30.7286	38.81
30.7388	39.03
30.749	38.37
30.7591	37.74
30.7693	38.59
30.7795	37.74
30.7896	38.41
30.7998	38.70
30.81	37.20
30.8201	37.99
30.8303	37.84
30.8405	36.71
30.8506	37.87
30.8608	37.99
30.871	36.92
30.8811	37.59
30.8913	38.12
30.9014	37.12
30.9116	37.64
30.9218	37.57
30.9319	37.41
30.9421	37.31
30.9523	38.23
30.9624	36.10
30.9726	36.95
30.9828	37.86
30.9929	36.36
31.0031	37.20
31.0133	37.21
31.0234	36.33
31.0336	36.15
31.0437	36.75
31.0539	36.13
31.0641	36.02
31.0742	36.16
31.0844	36.27
31.0946	35.99
31.1047	36.56
31.1149	35.86
31.1251	35.64
31.1352	36.18
31.1454	35.31
31.1556	35.56
31.1657	35.72
31.1759	36.19
31.186	35.57
31.1962	35.48
31.2064	35.70
31.2165	35.81
31.2267	34.82
31.2369	34.95
31.247	34.46
31.2572	35.66
31.2674	35.44
31.2775	35.44
31.2877	35.25
31.2979	34.88
31.308	34.48
31.3182	35.66
31.3284	35.21
31.3385	34.33
31.3487	36.27
31.3588	34.63
31.369	34.63
31.3792	35.49
31.3893	34.64
31.3995	34.38
31.4097	35.00
31.4198	33.93
31.43	34.60
31.4402	35.22
31.4503	34.44
31.4605	34.60
31.4707	34.13
31.4808	34.04
31.491	34.23
31.5011	34.62
31.5113	34.29
31.5215	34.70
31.5316	34.51
31.5418	33.85
31.552	33.76
31.5621	34.66
31.5723	33.58
31.5825	33.72
31.5926	34.40
31.6028	34.19
31.613	33.77
31.6231	33.46
31.6333	34.04
31.6435	33.36
31.6536	33.74
31.6638	33.92
31.6739	33.72
31.6841	33.57
31.6943	32.99
31.7044	33.62
31.7146	34.41
31.7248	32.97
31.7349	33.84
31.7451	33.93
31.7553	33.13
31.7654	34.02
31.7756	34.21
31.7858	34.04
31.7959	34.10
31.8061	34.26
31.8162	33.29
31.8264	33.88
31.8366	34.25
31.8467	34.27
31.8569	33.60
31.8671	33.65
31.8772	33.20
31.8874	32.49
31.8976	33.53
31.9077	32.85
31.9179	32.89
31.9281	33.07
31.9382	33.25
31.9484	33.21
31.9586	33.43
31.9687	33.35
31.9789	32.91
31.989	33.85
31.9992	33.15
32.0094	32.95
32.0195	33.04
32.0297	33.60
32.0399	32.67
32.05	33.45
32.0602	33.28
32.0704	33.61
32.0805	33.52
32.0907	32.59
32.1009	32.98
32.111	33.64
32.1212	32.79
32.1313	33.68
32.1415	33.87
32.1517	33.34
32.1618	33.63
32.172	32.88
32.1822	32.77
32.1923	32.80
32.2025	32.78
32.2127	33.31
32.2228	32.69
32.233	32.16
32.2432	32.51
32.2533	32.57
32.2635	33.66
32.2737	32.93
32.2838	33.01
32.294	33.51
32.3041	32.75
32.3143	33.09
32.3245	32.90
32.3346	32.68
32.3448	32.36
32.355	32.30
32.3651	32.53
32.3753	33.42
32.3855	33.07
32.3956	32.62
32.4058	32.66
32.416	32.64
32.4261	33.38
32.4363	32.63
32.4464	33.18
32.4566	31.27
32.4668	33.07
32.4769	32.82
32.4871	32.48
32.4973	32.76
32.5074	33.23
32.5176	32.89
32.5278	32.97
32.5379	33.98
32.5481	32.12
32.5583	33.07
32.5684	32.98
32.5786	31.98
32.5888	32.95
32.5989	32.73
32.6091	32.10
32.6192	32.56
32.6294	33.19
32.6396	32.88
32.6497	32.63
32.6599	33.93
32.6701	31.90
32.6802	32.55
32.6904	32.46
32.7006	32.73
32.7107	34.01
32.7209	32.34
32.7311	32.43
32.7412	32.93
32.7514	33.72
32.7615	33.03
32.7717	32.18
32.7819	32.99
32.792	32.20
32.8022	32.53
32.8124	33.34
32.8225	33.05
32.8327	33.55
32.8429	33.05
32.853	33.11
32.8632	33.30
32.8734	32.50
32.8835	33.25
32.8937	32.38
32.9039	32.60
32.914	33.55
32.9242	32.27
32.9343	33.17
32.9445	32.62
32.9547	33.36
32.9648	31.99
32.975	32.67
32.9852	32.47
32.9953	32.79
33.0055	33.07
33.0157	33.46
33.0258	32.91
33.036	32.96
33.0462	32.27
33.0563	33.10
33.0665	33.17
33.0766	33.04
33.0868	33.26
33.097	33.53
33.1071	32.62
33.1173	33.22
33.1275	32.87
33.1376	33.02
33.1478	33.65
33.158	32.85
33.1681	33.22
33.1783	32.84
33.1885	33.34
33.1986	33.73
33.2088	32.52
33.2189	32.98
33.2291	33.71
33.2393	33.78
33.2494	33.00
33.2596	33.21
33.2698	34.27
33.2799	34.55
33.2901	33.57
33.3003	33.07
33.3104	32.55
33.3206	33.26
33.3308	33.57
33.3409	33.51
33.3511	33.63
33.3613	34.39
33.3714	33.29
33.3816	34.16
33.3917	33.41
33.4019	33.09
33.4121	33.40
33.4222	34.46
33.4324	34.26
33.4426	34.46
33.4527	33.99
33.4629	33.71
33.4731	33.66
33.4832	33.64
33.4934	33.43
33.5036	33.72
33.5137	33.90
33.5239	32.99
33.534	33.46
33.5442	33.45
33.5544	33.12
33.5645	33.38
33.5747	33.34
33.5849	33.21
33.595	33.50
33.6052	33.05
33.6154	34.16
33.6255	33.22
33.6357	33.30
33.6459	33.23
33.656	33.16
33.6662	32.47
33.6764	33.32
33.6865	33.25
33.6967	32.96
33.7068	32.80
33.717	32.71
33.7272	31.27
33.7373	32.19
33.7475	32.80
33.7577	32.25
33.7678	32.11
33.778	32.65
33.7882	31.13
33.7983	31.60
33.8085	31.68
33.8187	31.32
33.8288	31.65
33.839	31.35
33.8491	31.71
33.8593	30.87
33.8695	31.31
33.8796	30.98
33.8898	31.50
33.9	31.11
33.9101	30.70
33.9203	30.71
33.9305	30.79
33.9406	30.40
33.9508	30.71
33.961	30.79
33.9711	31.22
33.9813	30.89
33.9915	30.09
34.0016	30.11
34.0118	31.01
34.0219	29.38
34.0321	29.74
34.0423	30.13
34.0524	30.76
34.0626	30.47
34.0728	29.54
34.0829	30.14
34.0931	28.92
34.1033	28.71
34.1134	29.35
34.1236	28.37
34.1338	28.68
34.1439	29.34
34.1541	29.06
34.1642	28.98
34.1744	28.74
34.1846	29.10
34.1947	28.64
34.2049	28.74
34.2151	28.04
34.2252	28.53
34.2354	28.34
34.2456	28.65
34.2557	28.43
34.2659	28.32
34.2761	28.42
34.2862	28.66
34.2964	28.60
34.3066	27.18
34.3167	28.55
34.3269	27.70
34.337	27.55
34.3472	28.38
34.3574	27.87
34.3675	27.40
34.3777	28.57
34.3879	28.01
34.398	27.98
34.4082	27.85
34.4184	27.34
34.4285	27.64
34.4387	27.86
34.4489	28.03
34.459	27.13
34.4692	27.30
34.4793	27.61
34.4895	27.37
34.4997	27.35
34.5098	28.39
34.52	27.17
34.5302	27.37
34.5403	27.92
34.5505	26.79
34.5607	26.99
34.5708	27.16
34.581	26.70
34.5912	27.37
34.6013	27.09
34.6115	27.34
34.6217	26.74
34.6318	27.08
34.642	26.95
34.6521	26.92
34.6623	26.76
34.6725	27.12
34.6826	26.52
34.6928	26.41
34.703	26.59
34.7131	27.16
34.7233	26.41
34.7335	26.92
34.7436	27.10
34.7538	26.55
34.764	27.23
34.7741	27.12
34.7843	26.30
34.7944	26.66
34.8046	26.65
34.8148	26.02
34.8249	26.55
34.8351	26.59
34.8453	26.73
34.8554	26.76
34.8656	26.06
34.8758	26.86
34.8859	26.95
34.8961	26.45
34.9063	25.93
34.9164	26.77
34.9266	26.76
34.9367	25.80
34.9469	25.78
34.9571	26.13
34.9672	26.61
34.9774	26.34
34.9876	25.77
34.9977	26.62
35.0079	25.79
35.0181	26.32
35.0282	25.61
35.0384	26.22
35.0486	25.93
35.0587	25.88
35.0689	25.62
35.0791	26.13
35.0892	25.95
35.0994	25.99
35.1095	26.28
35.1197	26.12
35.1299	25.72
35.14	26.61
35.1502	25.87
35.1604	25.74
35.1705	26.41
35.1807	26.05
35.1909	25.80
35.201	26.32
35.2112	25.75
35.2214	25.52
35.2315	25.98
35.2417	25.98
35.2518	25.74
35.262	24.95
35.2722	25.77
35.2823	26.04
35.2925	25.77
35.3027	26.18
35.3128	25.76
35.323	25.88
35.3332	25.37
35.3433	25.70
35.3535	26.54
35.3637	25.18
35.3738	25.96
35.384	25.80
35.3942	25.60
35.4043	25.62
35.4145	25.46
35.4246	24.81
35.4348	25.76
35.445	25.59
35.4551	24.81
35.4653	25.80
35.4755	25.51
35.4856	26.17
35.4958	25.51
35.506	25.93
35.5161	25.31
35.5263	25.48
35.5365	25.60
35.5466	25.69
35.5568	25.52
35.5669	25.23
35.5771	24.96
35.5873	25.63
35.5974	25.19
35.6076	25.70
35.6178	25.72
35.6279	25.51
35.6381	25.20
35.6483	25.55
35.6584	25.50
35.6686	25.27
35.6788	25.30
35.6889	25.37
35.6991	25.16
35.7093	25.03
35.7194	24.99
35.7296	25.44
35.7397	24.80
35.7499	25.80
35.7601	25.49
35.7702	24.59
35.7804	24.98
35.7906	24.70
35.8007	24.60
35.8109	25.27
35.8211	24.82
35.8312	24.96
35.8414	25.09
35.8516	25.88
35.8617	25.20
35.8719	24.64
35.882	24.01
35.8922	24.83
35.9024	25.26
35.9125	25.08
35.9227	24.78
35.9329	25.53
35.943	24.64
35.9532	25.14
35.9634	24.86
35.9735	25.08
35.9837	24.96
35.9939	24.73
36.004	25.14
36.0142	25.00
36.0244	24.59
36.0345	25.80
36.0447	25.03
36.0548	25.34
36.065	25.24
36.0752	24.46
36.0853	24.75
36.0955	24.99
36.1057	24.75
36.1158	25.01
36.126	24.54
36.1362	24.20
36.1463	25.66
36.1565	25.61
36.1667	24.70
36.1768	25.63
36.187	25.07
36.1971	25.39
36.2073	24.91
36.2175	25.08
36.2276	25.09
36.2378	24.87
36.248	24.18
36.2581	24.43
36.2683	25.32
36.2785	25.28
36.2886	24.43
36.2988	24.97
36.309	25.34
36.3191	25.27
36.3293	24.35
36.3395	24.88
36.3496	24.60
36.3598	24.23
36.3699	25.15
36.3801	25.24
36.3903	24.76
36.4004	24.95
36.4106	25.08
36.4208	24.24
36.4309	25.23
36.4411	24.40
36.4513	24.68
36.4614	25.23
36.4716	24.48
36.4818	24.71
36.4919	24.71
36.5021	24.05
36.5122	25.37
36.5224	24.35
36.5326	25.35
36.5427	24.85
36.5529	24.50
36.5631	24.88
36.5732	25.13
36.5834	24.60
36.5936	24.62
36.6037	25.40
36.6139	25.09
36.6241	24.82
36.6342	25.09
36.6444	25.26
36.6546	25.04
36.6647	24.42
36.6749	24.74
36.685	24.10
36.6952	25.44
36.7054	25.15
36.7155	24.53
36.7257	24.81
36.7359	25.01
36.746	24.77
36.7562	25.13
36.7664	24.41
36.7765	24.98
36.7867	24.34
36.7969	24.94
36.807	25.24
36.8172	25.23
36.8273	24.63
36.8375	25.20
36.8477	24.53
36.8578	24.32
36.868	24.60
36.8782	24.43
36.8883	24.77
36.8985	25.35
36.9087	24.81
36.9188	25.30
36.929	24.98
36.9392	24.90
36.9493	25.11
36.9595	25.71
36.9696	25.66
36.9798	25.23
36.99	25.63
37.0001	25.21
37.0103	24.74
37.0205	25.30
37.0306	25.59
37.0408	25.18
37.051	24.62
37.0611	25.32
37.0713	25.63
37.0815	25.27
37.0916	26.05
37.1018	24.87
37.112	26.26
37.1221	24.29
37.1323	25.33
37.1424	25.09
37.1526	24.79
37.1628	26.25
37.1729	24.65
37.1831	25.71
37.1933	25.40
37.2034	25.43
37.2136	25.82
37.2238	25.67
37.2339	25.68
37.2441	25.57
37.2543	25.93
37.2644	26.06
37.2746	25.89
37.2847	25.55
37.2949	25.58
37.3051	25.96
37.3152	25.05
37.3254	25.59
37.3356	25.38
37.3457	25.56
37.3559	26.08
37.3661	25.29
37.3762	25.68
37.3864	26.27
37.3966	25.73
37.4067	25.57
37.4169	26.02
37.4271	26.05
37.4372	25.56
37.4474	25.91
37.4575	26.39
37.4677	25.09
37.4779	26.18
37.488	25.96
37.4982	26.05
37.5084	25.51
37.5185	26.12
37.5287	26.71
37.5389	25.65
37.549	26.13
37.5592	25.65
37.5694	26.92
37.5795	27.08
37.5897	25.90
37.5998	26.90
37.61	26.24
37.6202	25.91
37.6303	26.91
37.6405	26.12
37.6507	25.65
37.6608	26.37
37.671	25.69
37.6812	26.02
37.6913	26.14
37.7015	26.48
37.7117	27.13
37.7218	26.72
37.732	26.40
37.7422	26.49
37.7523	26.62
37.7625	26.78
37.7726	26.05
37.7828	26.89
37.793	27.10
37.8031	26.99
37.8133	27.23
37.8235	27.49
37.8336	26.91
37.8438	27.70
37.854	27.36
37.8641	27.88
37.8743	27.01
37.8845	26.79
37.8946	28.01
37.9048	26.59
37.9149	27.03
37.9251	26.83
37.9353	27.49
37.9454	27.18
37.9556	26.95
37.9658	27.92
37.9759	27.07
37.9861	27.08
37.9963	26.93
38.0064	27.42
38.0166	27.45
38.0268	28.40
38.0369	27.35
38.0471	27.11
38.0573	27.37
38.0674	28.13
38.0776	27.65
38.0877	28.41
38.0979	27.93
38.1081	27.76
38.1182	29.02
38.1284	28.09
38.1386	27.57
38.1487	28.05
38.1589	27.98
38.1691	27.25
38.1792	28.50
38.1894	27.82
38.1996	27.44
38.2097	28.56
38.2199	28.12
38.23	28.10
38.2402	27.95
38.2504	28.31
38.2605	28.07
38.2707	27.86
38.2809	28.80
38.291	28.60
38.3012	28.76
38.3114	29.07
38.3215	28.96
38.3317	29.21
38.3419	29.20
38.352	28.67
38.3622	28.31
38.3724	29.13
38.3825	29.09
38.3927	28.38
38.4028	29.64
38.413	28.78
38.4232	29.67
38.4333	29.43
38.4435	29.59
38.4537	28.92
38.4638	29.06
38.474	29.29
38.4842	29.51
38.4943	29.70
38.5045	28.85
38.5147	28.92
38.5248	29.49
38.535	29.47
38.5451	29.60
38.5553	29.07
38.5655	29.07
38.5756	30.15
38.5858	28.77
38.596	28.89
38.6061	29.44
38.6163	29.98
38.6265	30.16
38.6366	29.65
38.6468	29.79
38.657	29.20
38.6671	29.62
38.6773	30.06
38.6875	29.48
38.6976	28.84
38.7078	30.12
38.7179	29.02
38.7281	29.35
38.7383	29.74
38.7484	30.02
38.7586	29.59
38.7688	29.90
38.7789	29.49
38.7891	30.34
38.7993	29.41
38.8094	30.16
38.8196	30.19
38.8298	29.82
38.8399	29.51
38.8501	29.80
38.8602	29.25
38.8704	29.58
38.8806	28.93
38.8907	30.43
38.9009	29.87
38.9111	29.55
38.9212	29.93
38.9314	29.90
38.9416	29.62
38.9517	29.19
38.9619	29.44
38.9721	29.83
38.9822	29.91
38.9924	29.46
39.0025	29.84
39.0127	29.21
39.0229	29.23
39.033	29.37
39.0432	29.43
39.0534	29.05
39.0635	29.54
39.0737	29.29
39.0839	29.59
39.094	29.92
39.1042	29.73
39.1144	29.71
39.1245	29.37
39.1347	29.44
39.1449	29.59
39.155	29.33
39.1652	28.92
39.1753	28.97
39.1855	28.77
39.1957	28.57
39.2058	28.85
39.216	28.57
39.2262	28.98
39.2363	28.54
39.2465	28.43
39.2567	28.13
39.2668	29.24
39.277	29.02
39.2872	28.40
39.2973	28.88
39.3075	28.41
39.3176	29.15
39.3278	28.55
39.338	28.77
39.3481	27.97
39.3583	28.01
39.3685	28.31
39.3786	29.15
39.3888	28.27
39.399	28.50
39.4091	28.56
39.4193	28.55
39.4295	27.90
39.4396	28.20
39.4498	28.59
39.46	27.35
39.4701	27.68
39.4803	28.20
39.4904	27.37
39.5006	27.32
39.5108	27.41
39.5209	27.40
39.5311	28.01
39.5413	27.28
39.5514	27.66
39.5616	26.81
39.5718	28.15
39.5819	26.71
39.5921	27.29
39.6023	27.71
39.6124	27.40
39.6226	27.27
39.6327	27.31
39.6429	27.20
39.6531	27.19
39.6632	27.25
39.6734	26.70
39.6836	26.78
39.6937	27.63
39.7039	27.72
39.7141	27.24
39.7242	26.78
39.7344	27.65
39.7446	26.33
39.7547	26.43
39.7649	26.87
39.7751	26.98
39.7852	27.32
39.7954	27.11
39.8055	25.07
39.8157	26.34
39.8259	26.10
39.836	25.83
39.8462	26.23
39.8564	26.51
39.8665	26.41
39.8767	26.35
39.8869	25.86
39.897	25.91
39.9072	26.47
39.9174	26.76
39.9275	26.10
39.9377	26.04
39.9478	26.39
39.958	26.03
39.9682	26.80
39.9783	25.55
39.9885	26.32
39.9987	26.70
40.0088	25.93
