5.0023	52.20
5.0125	51.01
5.0226	49.40
5.0328	49.20
5.043	49.32
5.0531	48.01
5.0633	47.80
5.0735	46.90
5.0836	46.35
5.0938	45.07
5.1039	44.71
5.1141	43.81
5.1243	43.35
5.1344	43.42
5.1446	42.16
5.1548	41.66
5.1649	41.52
5.1751	39.87
5.1853	39.51
5.1954	40.80
5.2056	38.79
5.2158	38.60
5.2259	38.24
5.2361	39.23
5.2462	36.78
5.2564	37.10
5.2666	37.43
5.2767	35.28
5.2869	36.29
5.2971	36.18
5.3072	34.54
5.3174	34.10
5.3276	33.93
5.3377	34.15
5.3479	34.02
5.3581	34.30
5.3682	33.34
5.3784	32.77
5.3886	32.48
5.3987	31.77
5.4089	31.71
5.419	31.44
5.4292	30.51
5.4394	30.19
5.4495	30.86
5.4597	30.27
5.4699	29.48
5.48	30.17
5.4902	30.47
5.5004	29.31
5.5105	29.03
5.5207	28.77
5.5309	28.86
5.541	28.68
5.5512	28.40
5.5613	28.49
5.5715	27.77
5.5817	27.45
5.5918	27.12
5.602	26.76
5.6122	26.86
5.6223	26.87
5.6325	25.89
5.6427	26.41
5.6528	26.55
5.663	26.39
5.6732	25.51
5.6833	26.08
5.6935	25.10
5.7036	25.48
5.7138	25.16
5.724	24.59
5.7341	24.76
5.7443	24.84
5.7545	25.91
5.7646	24.18
5.7748	23.73
5.785	25.02
5.7951	23.98
5.8053	23.94
5.8155	25.13
5.8256	24.13
5.8358	24.25
5.846	24.74
5.8561	23.66
5.8663	23.09
5.8764	24.23
5.8866	24.22
5.8968	24.68
5.9069	23.90
5.9171	23.80
5.9273	23.69
5.9374	24.27
5.9476	24.63
5.9578	23.76
5.9679	24.05
5.9781	22.84
5.9883	23.85
5.9984	23.31
6.0086	23.41
6.0187	23.38
6.0289	23.71
6.0391	22.91
6.0492	23.52
6.0594	23.26
6.0696	23.39
6.0797	24.06
6.0899	22.59
6.1001	23.09
6.1102	23.97
6.1204	23.44
6.1306	22.95
6.1407	22.98
6.1509	22.83
6.1611	23.12
6.1712	23.23
6.1814	21.97
6.1915	22.55
6.2017	22.80
6.2119	22.98
6.222	23.05
6.2322	22.66
6.2424	22.80
6.2525	22.96
6.2627	21.90
6.2729	22.97
6.283	22.52
6.2932	22.06
6.3034	22.94
6.3135	23.06
6.3237	22.60
6.3338	23.23
6.344	23.20
6.3542	22.68
6.3643	22.33
6.3745	22.52
6.3847	22.83
6.3948	22.46
6.405	22.43
6.4152	22.26
6.4253	22.84
6.4355	23.18
6.4457	23.04
6.4558	22.97
6.466	22.85
6.4762	22.09
6.4863	23.37
6.4965	22.78
6.5066	22.59
6.5168	23.12
6.527	23.60
6.5371	22.55
6.5473	23.21
6.5575	23.10
6.5676	22.98
6.5778	22.90
6.588	22.29
6.5981	23.10
6.6083	22.83
6.6185	23.07
6.6286	22.80
6.6388	23.32
6.6489	23.08
6.6591	23.39
6.6693	22.60
6.6794	22.49
6.6896	23.20
6.6998	23.37
6.7099	23.56
6.7201	22.63
6.7303	23.40
6.7404	23.77
6.7506	22.71
6.7608	22.82
6.7709	23.26
6.7811	23.49
6.7913	23.49
6.8014	22.79
6.8116	24.10
6.8217	23.68
6.8319	23.82
6.8421	24.09
6.8522	23.04
6.8624	24.07
6.8726	23.62
6.8827	23.85
6.8929	22.96
6.9031	23.93
6.9132	23.29
6.9234	23.31
6.9336	23.66
6.9437	23.13
6.9539	23.82
6.964	23.60
6.9742	23.47
6.9844	23.91
6.9945	23.80
7.0047	23.83
7.0149	23.91
7.025	23.80
7.0352	23.88
7.0454	23.15
7.0555	23.16
7.0657	23.77
7.0759	23.37
7.086	23.87
7.0962	23.90
7.1064	24.19
7.1165	24.01
7.1267	23.70
7.1368	23.77
7.147	23.07
7.1572	23.87
7.1673	24.43
7.1775	23.97
7.1877	23.99
7.1978	24.60
7.208	25.09
7.2182	23.71
7.2283	24.26
7.2385	24.92
7.2487	23.74
7.2588	24.43
7.269	24.70
7.2791	24.67
7.2893	24.82
7.2995	24.32
7.3096	24.57
7.3198	25.20
7.33	24.21
7.3401	24.82
7.3503	24.62
7.3605	24.15
7.3706	24.88
7.3808	24.13
7.391	24.50
7.4011	24.93
7.4113	24.81
7.4215	24.20
7.4316	24.34
7.4418	24.81
7.4519	23.69
7.4621	24.62
7.4723	24.88
7.4824	24.59
7.4926	24.07
7.5028	24.96
7.5129	24.32
7.5231	24.70
7.5333	25.13
7.5434	24.74
7.5536	25.03
7.5638	24.65
7.5739	24.76
7.5841	24.87
7.5942	24.88
7.6044	24.53
7.6146	24.85
7.6247	24.38
7.6349	25.07
7.6451	24.79
7.6552	23.98
7.6654	25.15
7.6756	23.85
7.6857	24.82
7.6959	24.87
7.7061	24.85
7.7162	25.51
7.7264	25.40
7.7365	25.16
7.7467	25.15
7.7569	24.68
7.767	25.18
7.7772	24.62
7.7874	25.32
7.7975	25.44
7.8077	24.76
7.8179	24.65
7.828	24.94
7.8382	25.12
7.8484	25.16
7.8585	25.22
7.8687	25.51
7.8789	25.88
7.889	26.40
7.8992	26.19
7.9093	25.54
7.9195	25.40
7.9297	25.61
7.9398	25.54
7.95	25.12
7.9602	25.43
7.9703	25.22
7.9805	26.24
7.9907	25.29
8.0008	25.97
8.011	26.90
8.0212	25.46
8.0313	26.38
8.0415	26.15
8.0516	26.21
8.0618	26.01
8.072	25.98
8.0821	26.22
8.0923	25.68
8.1025	25.70
8.1126	26.26
8.1228	25.68
8.133	25.96
8.1431	26.28
8.1533	26.02
8.1635	26.99
8.1736	25.79
8.1838	25.28
8.194	26.04
8.2041	26.87
8.2143	26.49
8.2244	26.40
8.2346	26.64
8.2448	25.72
8.2549	26.01
8.2651	26.24
8.2753	26.19
8.2854	26.59
8.2956	26.67
8.3058	27.12
8.3159	26.46
8.3261	26.74
8.3363	26.87
8.3464	26.83
8.3566	26.98
8.3667	26.38
8.3769	25.79
8.3871	26.62
8.3972	26.86
8.4074	26.91
8.4176	26.58
8.4277	26.37
8.4379	27.51
8.4481	26.43
8.4582	27.18
8.4684	26.56
8.4786	26.68
8.4887	26.66
8.4989	26.77
8.5091	27.12
8.5192	26.45
8.5294	26.63
8.5395	27.21
8.5497	27.73
8.5599	27.14
8.57	28.10
8.5802	26.55
8.5904	27.65
8.6005	27.16
8.6107	26.82
8.6209	27.58
8.631	27.17
8.6412	27.74
8.6514	27.57
8.6615	28.10
8.6717	27.32
8.6818	27.27
8.692	28.85
8.7022	26.64
8.7123	27.93
8.7225	26.86
8.7327	26.99
8.7428	27.79
8.753	27.22
8.7632	27.71
8.7733	27.84
8.7835	27.80
8.7937	27.82
8.8038	27.41
8.814	28.74
8.8242	27.54
8.8343	27.40
8.8445	27.59
8.8546	28.02
8.8648	28.02
8.875	27.19
8.8851	27.88
8.8953	28.68
8.9055	28.37
8.9156	28.10
8.9258	28.09
8.936	28.75
8.9461	27.77
8.9563	29.20
8.9665	27.27
8.9766	27.77
8.9868	27.84
8.9969	28.93
9.0071	28.23
9.0173	28.00
9.0274	27.93
9.0376	27.94
9.0478	29.01
9.0579	28.05
9.0681	28.27
9.0783	29.02
9.0884	29.48
9.0986	27.43
9.1088	28.46
9.1189	28.90
9.1291	28.48
9.1393	29.65
9.1494	28.20
9.1596	28.23
9.1697	28.34
9.1799	28.92
9.1901	28.48
9.2002	28.48
9.2104	29.36
9.2206	28.07
9.2307	28.34
9.2409	28.93
9.2511	28.60
9.2612	28.65
9.2714	29.21
9.2816	28.23
9.2917	29.84
9.3019	29.85
9.312	28.75
9.3222	28.63
9.3324	29.16
9.3425	28.95
9.3527	28.45
9.3629	29.01
9.373	28.91
9.3832	29.46
9.3934	29.40
9.4035	28.68
9.4137	30.32
9.4239	29.44
9.434	30.14
9.4442	29.70
9.4544	29.45
9.4645	29.28
9.4747	30.35
9.4848	30.08
9.495	30.18
9.5052	30.09
9.5153	29.12
9.5255	29.93
9.5357	29.98
9.5458	30.09
9.556	29.16
9.5662	30.38
9.5763	29.51
9.5865	28.88
9.5967	29.83
9.6068	29.99
9.617	29.50
9.6271	30.41
9.6373	29.91
9.6475	30.41
9.6576	30.59
9.6678	30.18
9.678	29.55
9.6881	31.09
9.6983	31.33
9.7085	30.12
9.7186	30.34
9.7288	29.51
9.739	29.48
9.7491	30.91
9.7593	30.34
9.7694	30.72
9.7796	31.30
9.7898	29.78
9.7999	29.75
9.8101	29.67
9.8203	30.73
9.8304	30.18
9.8406	30.41
9.8508	30.43
9.8609	29.96
9.8711	30.14
9.8813	29.70
9.8914	30.04
9.9016	30.21
9.9118	30.30
9.9219	29.47
9.9321	31.07
9.9422	30.51
9.9524	29.95
9.9626	30.33
9.9727	31.43
9.9829	30.57
9.9931	30.34
10.0032	30.69
10.0134	29.85
10.0236	30.82
10.0337	30.92
10.0439	30.08
10.0541	30.33
10.0642	30.66
10.0744	30.35
10.0845	30.18
10.0947	31.22
10.1049	31.32
10.115	30.86
10.1252	31.07
10.1354	30.62
10.1455	30.82
10.1557	31.83
10.1659	30.90
10.176	30.80
10.1862	31.84
10.1964	30.66
10.2065	31.68
10.2167	31.91
10.2269	30.91
10.237	32.42
10.2472	31.01
10.2573	31.51
10.2675	31.09
10.2777	30.54
10.2878	30.55
10.298	31.66
10.3082	31.45
10.3183	30.46
10.3285	31.61
10.3387	32.09
10.3488	31.54
10.359	31.91
10.3692	32.08
10.3793	31.18
10.3895	31.04
10.3996	31.54
10.4098	31.37
10.42	31.96
10.4301	32.33
10.4403	31.56
10.4505	31.65
10.4606	32.59
10.4708	32.63
10.481	31.51
10.4911	31.11
10.5013	31.83
10.5115	31.78
10.5216	31.55
10.5318	32.05
10.542	32.22
10.5521	33.20
10.5623	32.36
10.5724	32.45
10.5826	32.37
10.5928	31.95
10.6029	32.26
10.6131	32.37
10.6233	31.92
10.6334	33.00
10.6436	32.47
10.6538	32.80
10.6639	32.64
10.6741	31.98
10.6843	32.63
10.6944	32.82
10.7046	32.10
10.7147	32.40
10.7249	32.26
10.7351	32.77
10.7452	31.23
10.7554	33.06
10.7656	32.26
10.7757	32.43
10.7859	32.55
10.7961	32.54
10.8062	32.15
10.8164	32.94
10.8266	32.13
10.8367	32.80
10.8469	33.33
10.8571	32.78
10.8672	33.20
10.8774	32.70
10.8875	33.40
10.8977	32.53
10.9079	32.76
10.918	32.66
10.9282	33.68
10.9384	33.53
10.9485	32.84
10.9587	33.16
10.9689	33.38
10.979	32.70
10.9892	34.00
10.9994	34.01
11.0095	33.09
11.0197	34.02
11.0298	33.46
11.04	33.18
11.0502	33.41
11.0603	33.90
11.0705	33.32
11.0807	33.46
11.0908	33.44
11.101	34.34
11.1112	33.73
11.1213	33.40
11.1315	33.45
11.1417	33.55
11.1518	34.42
11.162	33.48
11.1722	34.21
11.1823	34.41
11.1925	33.90
11.2026	35.17
11.2128	34.60
11.223	34.02
11.2331	33.47
11.2433	34.12
11.2535	34.86
11.2636	33.13
11.2738	34.90
11.284	33.79
11.2941	33.78
11.3043	34.13
11.3145	34.18
11.3246	34.04
11.3348	34.44
11.3449	33.64
11.3551	34.57
11.3653	34.76
11.3754	34.80
11.3856	34.80
11.3958	34.84
11.4059	35.15
11.4161	34.17
11.4263	35.10
11.4364	34.95
11.4466	35.44
11.4568	35.12
11.4669	34.33
11.4771	35.31
11.4873	35.66
11.4974	35.87
11.5076	35.05
11.5177	35.90
11.5279	34.70
11.5381	35.45
11.5482	34.92
11.5584	34.73
11.5686	34.88
11.5787	35.32
11.5889	35.04
11.5991	35.27
11.6092	35.70
11.6194	35.26
11.6296	35.49
11.6397	35.55
11.6499	35.26
11.66	35.74
11.6702	35.99
11.6804	35.63
11.6905	36.46
11.7007	35.80
11.7109	36.51
11.721	36.38
11.7312	35.65
11.7414	35.80
11.7515	35.68
11.7617	36.45
11.7719	36.48
11.782	36.84
11.7922	36.01
11.8023	36.21
11.8125	36.24
11.8227	35.85
11.8328	35.87
11.843	36.16
11.8532	35.87
11.8633	36.46
11.8735	36.02
11.8837	36.70
11.8938	36.25
11.904	37.35
11.9142	37.13
11.9243	36.47
11.9345	37.27
11.9447	36.77
11.9548	36.89
11.965	37.38
11.9751	36.87
11.9853	36.85
11.9955	37.12
12.0056	37.98
12.0158	37.09
12.026	36.64
12.0361	37.82
12.0463	37.59
12.0565	36.68
12.0666	37.40
12.0768	38.00
12.087	36.95
12.0971	38.52
12.1073	38.28
12.1174	37.11
12.1276	39.01
12.1378	37.79
12.1479	37.55
12.1581	37.94
12.1683	37.77
12.1784	37.36
12.1886	38.66
12.1988	38.21
12.2089	37.59
12.2191	39.04
12.2293	38.13
12.2394	37.60
12.2496	37.97
12.2598	37.73
12.2699	38.58
12.2801	37.84
12.2902	37.74
12.3004	39.14
12.3106	39.33
12.3207	38.59
12.3309	37.43
12.3411	38.80
12.3512	37.88
12.3614	38.12
12.3716	40.13
12.3817	38.51
12.3919	39.48
12.4021	39.35
12.4122	38.61
12.4224	39.21
12.4325	38.93
12.4427	39.37
12.4529	39.66
12.463	39.81
12.4732	39.96
12.4834	40.40
12.4935	39.91
12.5037	39.03
12.5139	40.60
12.524	39.91
12.5342	39.70
12.5444	39.66
12.5545	40.82
12.5647	40.01
12.5749	41.09
12.585	40.48
12.5952	40.27
12.6053	40.24
12.6155	40.94
12.6257	39.85
12.6358	40.65
12.646	40.37
12.6562	39.67
12.6663	41.56
12.6765	39.68
12.6867	40.27
12.6968	39.75
12.707	40.70
12.7172	40.68
12.7273	41.08
12.7375	41.07
12.7476	40.87
12.7578	41.62
12.768	41.04
12.7781	41.08
12.7883	40.49
12.7985	41.10
12.8086	41.20
12.8188	41.46
12.829	42.10
12.8391	41.10
12.8493	42.46
12.8595	41.11
12.8696	41.88
12.8798	42.54
12.89	41.84
12.9001	42.10
12.9103	41.88
12.9204	42.21
12.9306	42.78
12.9408	42.05
12.9509	42.15
12.9611	41.94
12.9713	42.40
12.9814	43.05
12.9916	43.06
13.0018	43.15
13.0119	42.96
13.0221	42.67
13.0323	42.43
13.0424	42.85
13.0526	43.38
13.0627	42.49
13.0729	42.35
13.0831	43.43
13.0932	42.89
13.1034	42.96
13.1136	43.67
13.1237	43.33
13.1339	43.98
13.1441	44.35
13.1542	43.53
13.1644	43.98
13.1746	45.15
13.1847	44.30
13.1949	44.65
13.2051	44.85
13.2152	44.32
13.2254	44.50
13.2355	44.76
13.2457	44.11
13.2559	44.51
13.266	45.21
13.2762	45.24
13.2864	45.52
13.2965	44.20
13.3067	44.90
13.3169	45.24
13.327	44.55
13.3372	44.88
13.3474	44.97
13.3575	46.16
13.3677	45.62
13.3778	44.84
13.388	45.41
13.3982	46.10
13.4083	45.91
13.4185	47.68
13.4287	45.88
13.4388	46.23
13.449	46.48
13.4592	45.42
13.4693	46.43
13.4795	46.81
13.4897	46.79
13.4998	46.76
13.51	47.01
13.5201	45.98
13.5303	46.65
13.5405	47.01
13.5506	46.32
13.5608	46.93
13.571	46.78
13.5811	48.20
13.5913	48.20
13.6015	47.40
13.6116	48.34
13.6218	47.63
13.632	46.91
13.6421	48.56
13.6523	48.10
13.6625	48.39
13.6726	47.64
13.6828	48.68
13.6929	48.37
13.7031	48.96
13.7133	48.62
13.7234	48.32
13.7336	49.13
13.7438	50.02
13.7539	48.32
13.7641	49.22
13.7743	48.80
13.7844	48.94
13.7946	49.05
13.8048	48.95
13.8149	48.58
13.8251	49.25
13.8352	49.74
13.8454	49.51
13.8556	49.57
13.8657	51.26
13.8759	49.56
13.8861	50.40
13.8962	50.07
13.9064	51.60
13.9166	51.06
13.9267	50.43
13.9369	49.30
13.9471	52.18
13.9572	49.98
13.9674	51.40
13.9776	51.82
13.9877	50.48
13.9979	51.05
14.008	51.16
14.0182	51.09
14.0284	51.76
14.0385	51.45
14.0487	51.39
14.0589	51.98
14.069	52.20
14.0792	52.40
14.0894	52.18
14.0995	52.07
14.1097	52.01
14.1199	52.93
14.13	52.54
14.1402	52.24
14.1503	51.80
14.1605	52.89
14.1707	53.40
14.1808	53.33
14.191	52.45
14.2012	53.87
14.2113	53.30
14.2215	53.63
14.2317	53.75
14.2418	53.62
14.252	54.25
14.2622	53.82
14.2723	53.57
14.2825	54.63
14.2927	55.29
14.3028	53.96
14.313	54.86
14.3231	53.92
14.3333	54.58
14.3435	55.21
14.3536	55.35
14.3638	54.56
14.374	56.02
14.3841	56.68
14.3943	54.87
14.4045	55.31
14.4146	54.45
14.4248	55.09
14.435	55.49
14.4451	54.07
14.4553	56.32
14.4654	55.43
14.4756	56.11
14.4858	56.43
14.4959	57.07
14.5061	55.80
14.5163	56.24
14.5264	55.59
14.5366	58.03
14.5468	57.54
14.5569	57.63
14.5671	58.08
14.5773	57.60
14.5874	59.45
14.5976	58.25
14.6078	56.70
14.6179	57.34
14.6281	58.22
14.6382	57.69
14.6484	57.68
14.6586	58.81
14.6687	58.93
14.6789	59.53
14.6891	59.65
14.6992	59.27
14.7094	60.23
14.7196	60.20
14.7297	58.87
14.7399	59.74
14.7501	59.62
14.7602	61.09
14.7704	59.65
14.7805	59.48
14.7907	59.94
14.8009	61.04
14.811	60.68
14.8212	60.92
14.8314	59.93
14.8415	60.66
14.8517	60.42
14.8619	62.43
14.872	61.73
14.8822	61.43
14.8924	61.71
14.9025	61.30
14.9127	61.97
14.9229	61.37
14.933	61.45
14.9432	61.26
14.9533	62.80
14.9635	62.18
14.9737	61.90
14.9838	63.36
14.994	63.19
15.0042	64.02
15.0143	63.76
15.0245	63.93
15.0347	63.69
15.0448	63.68
15.055	63.57
15.0652	65.16
15.0753	63.05
15.0855	65.09
15.0956	65.18
15.1058	64.90
15.116	64.84
15.1261	65.22
15.1363	64.37
15.1465	65.46
15.1566	65.13
15.1668	65.95
15.177	66.89
15.1871	65.86
15.1973	66.21
15.2075	66.96
15.2176	67.40
15.2278	66.16
15.238	66.73
15.2481	66.34
15.2583	67.35
15.2684	67.16
15.2786	66.56
15.2888	68.26
15.2989	68.13
15.3091	67.83
15.3193	67.48
15.3294	68.01
15.3396	68.36
15.3498	68.49
15.3599	67.57
15.3701	67.76
15.3803	68.84
15.3904	69.12
15.4006	68.42
15.4107	70.66
15.4209	69.43
15.4311	68.58
15.4412	70.04
15.4514	68.98
15.4616	69.59
15.4717	71.41
15.4819	70.19
15.4921	70.58
15.5022	70.18
15.5124	71.53
15.5226	71.09
15.5327	70.84
15.5429	70.33
15.553	72.30
15.5632	70.52
15.5734	71.58
15.5835	72.23
15.5937	73.05
15.6039	72.40
15.614	72.07
15.6242	72.68
15.6344	72.99
15.6445	74.34
15.6547	73.53
15.6649	73.26
15.675	73.03
15.6852	73.06
15.6954	72.16
15.7055	73.86
15.7157	76.24
15.7258	74.28
15.736	74.62
15.7462	74.66
15.7563	75.57
15.7665	75.35
15.7767	74.32
15.7868	75.48
15.797	76.02
15.8072	75.20
15.8173	75.91
15.8275	76.62
15.8377	75.85
15.8478	76.42
15.858	76.56
15.8681	75.92
15.8783	77.37
15.8885	77.13
15.8986	76.87
15.9088	77.96
15.919	79.25
15.9291	77.32
15.9393	77.20
15.9495	78.71
15.9596	78.61
15.9698	79.48
15.98	79.32
15.9901	77.93
16.0003	79.46
16.0105	79.01
16.0206	80.20
16.0308	79.87
16.0409	78.77
16.0511	80.00
16.0613	80.02
16.0714	79.77
16.0816	81.43
16.0918	80.30
16.1019	80.35
16.1121	80.34
16.1223	80.48
16.1324	82.46
16.1426	83.51
16.1528	82.54
16.1629	80.80
16.1731	83.27
16.1832	81.01
16.1934	83.25
16.2036	83.09
16.2137	83.70
16.2239	83.38
16.2341	83.12
16.2442	83.34
16.2544	83.19
16.2646	85.85
16.2747	83.10
16.2849	85.65
16.2951	84.65
16.3052	84.63
16.3154	84.88
16.3256	86.95
16.3357	85.46
16.3459	85.60
16.356	84.75
16.3662	86.39
16.3764	86.27
16.3865	88.37
16.3967	88.33
16.4069	87.45
16.417	87.43
16.4272	87.98
16.4374	87.41
16.4475	88.14
16.4577	88.50
16.4679	87.76
16.478	88.27
16.4882	88.75
16.4983	89.53
16.5085	89.92
16.5187	89.19
16.5288	90.35
16.539	90.99
16.5492	89.09
16.5593	90.92
16.5695	89.96
16.5797	91.43
16.5898	90.01
16.6	92.35
16.6102	90.54
16.6203	91.15
16.6305	92.53
16.6407	91.49
16.6508	91.17
16.661	92.90
16.6711	94.37
16.6813	93.17
16.6915	93.29
16.7016	94.71
16.7118	93.72
16.722	94.98
16.7321	94.00
16.7423	93.82
16.7525	95.07
16.7626	94.59
16.7728	94.83
16.783	95.40
16.7931	95.91
16.8033	94.74
16.8134	96.83
16.8236	95.22
16.8338	95.68
16.8439	96.14
16.8541	96.66
16.8643	96.45
16.8744	97.52
16.8846	97.44
16.8948	98.12
16.9049	97.37
16.9151	97.26
16.9253	98.38
16.9354	96.82
16.9456	98.58
16.9558	98.73
16.9659	99.12
16.9761	97.95
16.9862	99.98
16.9964	100.36
17.0066	98.97
17.0167	99.08
17.0269	101.70
17.0371	101.10
17.0472	100.76
17.0574	100.63
17.0676	100.73
17.0777	101.11
17.0879	102.08
17.0981	99.87
17.1082	102.59
17.1184	103.15
17.1285	102.51
17.1387	101.66
17.1489	102.85
17.159	103.19
17.1692	103.95
17.1794	103.16
17.1895	102.42
17.1997	103.07
17.2099	104.82
17.22	102.02
17.2302	103.57
17.2404	104.41
17.2505	104.22
17.2607	105.27
17.2709	106.86
17.281	105.17
17.2912	106.24
17.3013	105.02
17.3115	106.43
17.3217	106.15
17.3318	104.79
17.342	106.30
17.3522	107.03
17.3623	108.65
17.3725	107.13
17.3827	108.59
17.3928	108.01
17.403	107.82
17.4132	107.55
17.4233	109.40
17.4335	108.49
17.4436	110.41
17.4538	107.88
17.464	108.71
17.4741	109.61
17.4843	109.87
17.4945	109.29
17.5046	110.62
17.5148	109.82
17.525	110.76
17.5351	110.52
17.5453	113.11
17.5555	112.18
17.5656	110.76
17.5758	112.27
17.5859	113.10
17.5961	115.70
17.6063	114.30
17.6164	115.56
17.6266	114.08
17.6368	115.96
17.6469	114.30
17.6571	115.65
17.6673	115.48
17.6774	116.26
17.6876	115.96
17.6978	116.18
17.7079	117.72
17.7181	116.76
17.7283	119.62
17.7384	118.32
17.7486	119.10
17.7587	119.56
17.7689	119.45
17.7791	120.82
17.7892	120.43
17.7994	121.95
17.8096	121.70
17.8197	124.29
17.8299	123.25
17.8401	123.93
17.8502	126.56
17.8604	124.38
17.8706	124.62
17.8807	127.76
17.8909	125.65
17.901	129.18
17.9112	129.51
17.9214	128.21
17.9315	129.64
17.9417	130.80
17.9519	129.34
17.962	130.15
17.9722	132.62
17.9824	132.68
17.9925	134.05
18.0027	134.51
18.0129	136.48
18.023	138.83
18.0332	138.33
18.0434	137.65
18.0535	138.08
18.0637	142.75
18.0738	141.38
18.084	141.71
18.0942	143.43
18.1043	144.91
18.1145	146.62
18.1247	148.73
18.1348	150.02
18.145	150.33
18.1552	153.49
18.1653	150.52
18.1755	153.76
18.1857	156.85
18.1958	157.33
18.206	155.84
18.2161	158.82
18.2263	160.33
18.2365	160.67
18.2466	165.36
18.2568	165.85
18.267	168.11
18.2771	170.15
18.2873	173.36
18.2975	171.87
18.3076	176.71
18.3178	177.11
18.328	178.16
18.3381	181.81
18.3483	183.53
18.3585	182.54
18.3686	189.93
18.3788	190.92
18.3889	191.23
18.3991	193.67
18.4093	194.43
18.4194	197.63
18.4296	201.78
18.4398	202.76
18.4499	205.50
18.4601	207.80
18.4703	209.18
18.4804	209.41
18.4906	215.04
18.5008	212.96
18.5109	215.47
18.5211	217.35
18.5312	220.89
18.5414	221.57
18.5516	224.63
18.5617	227.01
18.5719	224.20
18.5821	228.13
18.5922	227.79
18.6024	228.51
18.6126	231.70
18.6227	231.01
18.6329	228.34
18.6431	230.99
18.6532	231.60
18.6634	231.69
18.6736	233.23
18.6837	229.25
18.6939	230.03
18.704	232.14
18.7142	230.46
18.7244	226.79
18.7345	228.52
18.7447	226.48
18.7549	226.62
18.765	226.26
18.7752	224.95
18.7854	224.00
18.7955	219.96
18.8057	218.02
18.8159	214.89
18.826	215.48
18.8362	215.22
18.8463	210.32
18.8565	210.41
18.8667	207.59
18.8768	203.38
18.887	202.62
18.8972	202.27
18.9073	198.84
18.9175	195.69
18.9277	195.80
18.9378	192.96
18.948	190.63
18.9582	189.59
18.9683	186.38
18.9785	183.40
18.9887	184.25
18.9988	179.83
19.009	178.04
19.0191	177.38
19.0293	176.24
19.0395	176.31
19.0496	173.04
19.0598	168.09
19.07	170.09
19.0801	169.33
19.0903	167.58
19.1005	164.33
19.1106	162.89
19.1208	162.11
19.131	161.35
19.1411	157.05
19.1513	158.77
19.1614	158.57
19.1716	155.62
19.1818	152.76
19.1919	155.85
19.2021	153.95
19.2123	150.78
19.2224	150.18
19.2326	148.31
19.2428	146.74
19.2529	147.45
19.2631	147.68
19.2733	146.33
19.2834	143.87
19.2936	144.28
19.3038	142.10
19.3139	142.48
19.3241	140.58
19.3342	139.39
19.3444	141.18
19.3546	138.41
19.3647	137.90
19.3749	140.20
19.3851	139.37
19.3952	136.91
19.4054	136.56
19.4156	134.62
19.4257	135.16
19.4359	134.72
19.4461	134.48
19.4562	134.21
19.4664	134.53
19.4765	134.79
19.4867	132.57
19.4969	132.34
19.507	131.67
19.5172	132.46
19.5274	130.04
19.5375	131.01
19.5477	130.33
19.5579	130.26
19.568	130.68
19.5782	129.51
19.5884	129.91
19.5985	128.65
19.6087	127.18
19.6188	129.40
19.629	128.88
19.6392	127.95
19.6493	127.90
19.6595	127.94
19.6697	126.41
19.6798	128.39
19.69	128.88
19.7002	126.04
19.7103	127.73
19.7205	128.07
19.7307	126.54
19.7408	126.30
19.751	126.73
19.7612	125.42
19.7713	127.35
19.7815	126.55
19.7916	125.89
19.8018	124.82
19.812	126.01
19.8221	124.37
19.8323	126.15
19.8425	123.84
19.8526	124.92
19.8628	125.46
19.873	123.01
19.8831	123.09
19.8933	124.24
19.9035	126.47
19.9136	123.43
19.9238	125.56
19.9339	124.63
19.9441	123.93
19.9543	125.45
19.9644	126.06
19.9746	124.47
19.9848	125.82
19.9949	127.29
20.0051	124.24
20.0153	126.02
20.0254	125.48
20.0356	123.74
20.0458	127.20
20.0559	124.93
20.0661	124.84
20.0763	127.41
20.0864	125.48
20.0966	126.46
20.1067	126.13
20.1169	127.15
20.1271	126.01
20.1372	126.71
20.1474	127.04
20.1576	125.64
20.1677	128.49
20.1779	127.32
20.1881	125.77
20.1982	126.88
20.2084	127.03
20.2186	127.59
20.2287	127.73
20.2389	127.61
20.249	127.28
20.2592	129.15
20.2694	129.95
20.2795	129.11
20.2897	130.24
20.2999	129.74
20.31	129.18
20.3202	130.77
20.3304	130.99
20.3405	129.25
20.3507	130.31
20.3609	129.12
20.371	131.27
20.3812	131.61
20.3914	131.18
20.4015	130.51
20.4117	130.08
20.4218	131.29
20.432	133.54
20.4422	131.25
20.4523	132.55
20.4625	129.99
20.4727	132.03
20.4828	130.82
20.493	133.47
20.5032	131.68
20.5133	132.16
20.5235	130.39
20.5337	131.91
20.5438	132.88
20.554	131.79
20.5641	134.02
20.5743	132.66
20.5845	132.22
20.5946	132.82
20.6048	134.24
20.615	131.56
20.6251	132.94
20.6353	131.88
20.6455	130.92
20.6556	132.11
20.6658	132.20
20.676	130.45
20.6861	133.32
20.6963	130.85
20.7065	129.89
20.7166	130.88
20.7268	130.12
20.7369	130.16
20.7471	130.50
20.7573	129.56
20.7674	126.43
20.7776	129.88
20.7878	129.90
20.7979	128.38
20.8081	127.83
20.8183	126.05
20.8284	125.47
20.8386	125.41
20.8488	125.60
20.8589	124.91
20.8691	124.54
20.8792	124.52
20.8894	124.02
20.8996	123.85
20.9097	123.59
20.9199	121.02
20.9301	123.48
20.9402	123.41
20.9504	120.38
20.9606	121.16
20.9707	119.70
20.9809	120.07
20.9911	121.06
21.0012	119.16
21.0114	120.45
21.0216	119.33
21.0317	119.91
21.0419	118.22
21.052	118.85
21.0622	116.65
21.0724	117.79
21.0825	116.69
21.0927	117.20
21.1029	116.82
21.113	115.96
21.1232	115.79
21.1334	116.38
21.1435	115.74
21.1537	114.78
21.1639	113.25
21.174	114.01
21.1842	110.93
21.1943	112.43
21.2045	112.85
21.2147	113.80
21.2248	112.76
21.235	113.80
21.2452	113.95
21.2553	111.23
21.2655	113.11
21.2757	113.05
21.2858	112.15
21.296	112.37
21.3062	111.89
21.3163	109.59
21.3265	111.99
21.3366	111.77
21.3468	109.30
21.357	111.51
21.3671	111.72
21.3773	108.60
21.3875	112.27
21.3976	110.88
21.4078	109.99
21.418	112.79
21.4281	109.88
21.4383	110.55
21.4485	111.95
21.4586	109.48
21.4688	109.96
21.479	109.91
21.4891	110.63
21.4993	111.03
21.5094	110.09
21.5196	111.82
21.5298	109.74
21.5399	111.01
21.5501	110.05
21.5603	112.22
21.5704	112.44
21.5806	112.02
21.5908	110.19
21.6009	113.49
21.6111	112.93
21.6213	112.52
21.6314	114.18
21.6416	114.12
21.6517	113.81
21.6619	113.83
21.6721	115.34
21.6822	113.95
21.6924	116.76
21.7026	115.40
21.7127	117.10
21.7229	117.61
21.7331	118.40
21.7432	118.79
21.7534	119.26
21.7636	119.76
21.7737	119.46
21.7839	122.37
21.7941	123.88
21.8042	123.42
21.8144	123.44
21.8245	127.70
21.8347	125.71
21.8449	127.74
21.855	128.65
21.8652	129.78
21.8754	130.16
21.8855	130.98
21.8957	130.42
21.9059	132.96
21.916	132.95
21.9262	133.85
21.9364	134.67
21.9465	136.57
21.9567	135.20
21.9668	137.09
21.977	137.33
21.9872	136.61
21.9973	139.10
22.0075	137.90
22.0177	138.33
22.0278	140.85
22.038	141.12
22.0482	138.60
22.0583	139.91
22.0685	140.99
22.0787	138.42
22.0888	141.21
22.099	142.98
22.1092	139.12
22.1193	143.66
22.1295	142.78
22.1396	142.37
22.1498	142.76
22.16	143.85
22.1701	142.38
22.1803	141.58
22.1905	141.98
22.2006	142.22
22.2108	141.85
22.221	143.12
22.2311	143.85
22.2413	143.73
22.2515	144.90
22.2616	144.27
22.2718	146.45
22.2819	146.20
22.2921	143.65
22.3023	146.20
22.3124	147.54
22.3226	145.60
22.3328	147.63
22.3429	146.72
22.3531	145.63
22.3633	146.66
22.3734	145.30
22.3836	149.16
22.3938	147.75
22.4039	146.42
22.4141	147.52
22.4243	147.99
22.4344	148.48
22.4446	143.65
22.4547	146.66
22.4649	147.46
22.4751	144.26
22.4852	148.01
22.4954	145.29
22.5056	144.07
22.5157	146.05
22.5259	145.07
22.5361	143.80
22.5462	144.98
22.5564	143.65
22.5666	142.44
22.5767	142.16
22.5869	142.25
22.597	139.70
22.6072	142.09
22.6174	139.88
22.6275	137.90
22.6377	140.61
22.6479	140.85
22.658	137.49
22.6682	137.04
22.6784	138.89
22.6885	134.72
22.6987	136.22
22.7089	136.39
22.719	134.73
22.7292	135.66
22.7394	135.43
22.7495	132.37
22.7597	131.13
22.7698	130.96
22.78	130.28
22.7902	129.61
22.8003	127.95
22.8105	125.63
22.8207	126.27
22.8308	127.01
22.841	126.18
22.8512	125.15
22.8613	124.64
22.8715	122.47
22.8817	122.05
22.8918	122.35
22.902	120.48
22.9121	119.77
22.9223	120.53
22.9325	118.21
22.9426	118.97
22.9528	119.65
22.963	116.68
22.9731	117.30
22.9833	115.37
22.9935	114.66
23.0036	115.13
23.0138	114.57
23.024	112.22
23.0341	115.04
23.0443	111.16
23.0545	110.08
23.0646	110.88
23.0748	109.99
23.0849	108.70
23.0951	108.08
23.1053	108.13
23.1154	107.30
23.1256	108.24
23.1358	105.82
23.1459	105.41
23.1561	104.99
23.1663	103.32
23.1764	102.97
23.1866	102.65
23.1968	101.24
23.2069	102.85
23.2171	100.58
23.2272	98.60
23.2374	99.07
23.2476	99.54
23.2577	100.21
23.2679	95.89
23.2781	98.06
23.2882	97.27
23.2984	96.17
23.3086	96.16
23.3187	96.15
23.3289	93.66
23.3391	95.54
23.3492	93.98
23.3594	92.72
23.3695	94.51
23.3797	92.17
23.3899	92.66
23.4	91.08
23.4102	91.98
23.4204	89.63
23.4305	90.19
23.4407	89.09
23.4509	87.85
23.461	87.93
23.4712	86.91
23.4814	88.05
23.4915	88.74
23.5017	85.37
23.5119	85.57
23.522	87.13
23.5322	84.24
23.5423	83.60
23.5525	85.45
23.5627	83.29
23.5728	83.53
23.583	83.44
23.5932	83.48
23.6033	83.87
23.6135	81.77
23.6237	82.73
23.6338	80.29
23.644	81.10
23.6542	80.73
23.6643	81.52
23.6745	80.19
23.6846	79.23
23.6948	78.73
23.705	78.65
23.7151	77.72
23.7253	79.51
23.7355	78.01
23.7456	76.60
23.7558	76.62
23.766	76.91
23.7761	77.32
23.7863	76.21
23.7965	76.93
23.8066	74.98
23.8168	75.89
23.827	76.28
23.8371	74.87
23.8473	75.56
23.8574	75.20
23.8676	73.58
23.8778	73.77
23.8879	73.70
23.8981	72.71
23.9083	73.92
23.9184	73.13
23.9286	72.68
23.9388	71.65
23.9489	72.40
23.9591	70.98
23.9693	72.73
23.9794	70.24
23.9896	72.60
23.9997	70.35
24.0099	71.29
24.0201	70.10
24.0302	70.69
24.0404	71.07
24.0506	68.68
24.0607	68.90
24.0709	70.82
24.0811	68.80
24.0912	69.73
24.1014	68.68
24.1116	68.74
24.1217	67.38
24.1319	68.02
24.1421	67.71
24.1522	67.98
24.1624	68.08
24.1725	66.93
24.1827	66.53
24.1929	67.49
24.203	66.87
24.2132	65.49
24.2234	65.91
24.2335	67.37
24.2437	65.40
24.2539	65.57
24.264	65.35
24.2742	65.03
24.2844	66.33
24.2945	66.21
24.3047	65.58
24.3148	65.66
24.325	64.96
24.3352	65.61
24.3453	65.32
24.3555	65.47
24.3657	65.21
24.3758	64.40
24.386	63.07
24.3962	64.52
24.4063	62.62
24.4165	63.49
24.4267	64.51
24.4368	63.11
24.447	62.65
24.4572	63.66
24.4673	62.38
24.4775	62.56
24.4876	63.18
24.4978	62.50
24.508	62.41
24.5181	62.07
24.5283	62.30
24.5385	62.05
24.5486	61.86
24.5588	61.76
24.569	61.12
24.5791	60.12
24.5893	61.46
24.5995	60.87
24.6096	61.70
24.6198	61.21
24.6299	61.32
24.6401	59.82
24.6503	61.68
24.6604	60.88
24.6706	60.78
24.6808	61.53
24.6909	60.33
24.7011	60.65
24.7113	60.56
24.7214	59.46
24.7316	59.21
24.7418	59.30
24.7519	59.34
24.7621	59.70
24.7723	59.93
24.7824	59.98
24.7926	57.87
24.8027	59.65
24.8129	58.54
24.8231	59.20
24.8332	58.27
24.8434	60.49
24.8536	59.11
24.8637	59.04
24.8739	59.42
24.8841	58.96
24.8942	59.25
24.9044	59.04
24.9146	58.94
24.9247	58.26
24.9349	57.46
24.945	58.46
24.9552	58.07
24.9654	58.46
24.9755	56.29
24.9857	58.73
24.9959	57.30
25.006	56.88
25.0162	56.63
25.0264	57.30
25.0365	57.77
25.0467	58.22
25.0569	57.65
25.067	57.20
25.0772	56.84
25.0874	57.57
25.0975	56.52
25.1077	57.01
25.1178	56.91
25.128	55.75
25.1382	56.90
25.1483	56.93
25.1585	56.46
25.1687	56.49
25.1788	55.59
25.189	56.99
25.1992	55.89
25.2093	56.84
25.2195	56.24
25.2297	55.40
25.2398	54.83
25.25	55.73
25.2601	55.82
25.2703	55.95
25.2805	55.57
25.2906	54.76
25.3008	55.83
25.311	55.65
25.3211	55.87
25.3313	55.08
25.3415	54.68
25.3516	56.30
25.3618	54.32
25.372	56.24
25.3821	55.95
25.3923	55.02
25.4024	53.93
25.4126	55.20
25.4228	54.57
25.4329	54.87
25.4431	55.38
25.4533	55.36
25.4634	54.70
25.4736	55.79
25.4838	54.91
25.4939	53.62
25.5041	53.79
25.5143	54.32
25.5244	54.60
25.5346	53.76
25.5448	54.21
25.5549	52.30
25.5651	53.28
25.5752	54.15
25.5854	53.55
25.5956	53.13
25.6057	54.12
25.6159	53.83
25.6261	53.43
25.6362	53.55
25.6464	53.51
25.6566	54.43
25.6667	53.09
25.6769	53.58
25.6871	53.82
25.6972	53.21
25.7074	53.30
25.7175	53.33
25.7277	52.29
25.7379	52.95
25.748	52.84
25.7582	53.28
25.7684	52.43
25.7785	52.41
25.7887	53.85
25.7989	52.70
25.809	53.05
25.8192	52.76
25.8294	52.51
25.8395	52.16
25.8497	52.55
25.8599	52.80
25.87	52.00
25.8802	52.76
25.8903	52.93
25.9005	52.35
25.9107	53.35
25.9208	52.21
25.931	51.14
25.9412	52.62
25.9513	52.54
25.9615	52.13
25.9717	51.02
25.9818	51.04
25.992	52.29
26.0022	51.96
26.0123	50.35
26.0225	52.01
26.0326	52.56
26.0428	51.79
26.053	51.59
26.0631	51.57
26.0733	51.03
26.0835	51.88
26.0936	50.23
26.1038	51.88
26.114	50.80
26.1241	50.61
26.1343	51.35
26.1445	51.01
26.1546	51.56
26.1648	49.40
26.175	51.60
26.1851	50.82
26.1953	50.64
26.2054	50.91
26.2156	51.37
26.2258	50.15
26.2359	50.92
26.2461	51.20
26.2563	51.07
26.2664	50.71
26.2766	50.45
26.2868	50.66
26.2969	50.02
26.3071	51.24
26.3173	49.79
26.3274	50.31
26.3376	49.03
26.3477	49.71
26.3579	50.09
26.3681	49.46
26.3782	50.66
26.3884	50.74
26.3986	49.70
26.4087	50.07
26.4189	50.60
26.4291	49.22
26.4392	49.78
26.4494	49.85
26.4596	49.81
26.4697	49.97
26.4799	50.28
26.4901	48.98
26.5002	49.19
26.5104	49.32
26.5205	48.38
26.5307	48.91
26.5409	48.99
26.551	49.66
26.5612	49.25
26.5714	49.64
26.5815	49.05
26.5917	48.97
26.6019	48.07
26.612	50.38
26.6222	48.58
26.6324	48.48
26.6425	48.51
26.6527	48.16
26.6628	49.26
26.673	47.88
26.6832	48.05
26.6933	48.75
26.7035	47.95
26.7137	48.47
26.7238	48.43
26.734	48.60
26.7442	48.59
26.7543	47.85
26.7645	49.10
26.7747	49.26
26.7848	47.77
26.795	48.85
26.8052	48.88
26.8153	48.53
26.8255	48.53
26.8356	48.05
26.8458	47.91
26.856	48.54
26.8661	48.38
26.8763	46.59
26.8865	48.63
26.8966	47.65
26.9068	48.57
26.917	47.28
26.9271	48.49
26.9373	46.77
26.9475	48.23
26.9576	48.09
26.9678	48.93
26.9779	47.48
26.9881	47.80
26.9983	47.93
27.0084	47.54
27.0186	47.71
27.0288	47.02
27.0389	46.73
27.0491	47.42
27.0593	47.69
27.0694	47.44
27.0796	47.84
27.0898	46.63
27.0999	48.10
27.1101	48.73
27.1202	47.43
27.1304	47.61
27.1406	46.92
27.1507	46.82
27.1609	48.32
27.1711	46.27
27.1812	47.15
27.1914	48.16
27.2016	47.66
27.2117	48.73
27.2219	47.94
27.2321	47.68
27.2422	47.32
27.2524	47.77
27.2626	47.05
27.2727	47.00
27.2829	47.67
27.293	47.05
27.3032	47.35
27.3134	46.93
27.3235	47.67
27.3337	48.18
27.3439	48.63
27.354	48.30
27.3642	47.32
27.3744	48.24
27.3845	47.63
27.3947	47.55
27.4049	48.29
27.415	47.79
27.4252	48.15
27.4353	48.31
27.4455	48.07
27.4557	48.45
27.4658	47.36
27.476	46.82
27.4862	48.64
27.4963	48.46
27.5065	47.99
27.5167	48.23
27.5268	48.54
27.537	47.85
27.5472	47.98
27.5573	48.18
27.5675	48.74
27.5777	48.80
27.5878	48.37
27.598	48.96
27.6081	48.44
27.6183	48.90
27.6285	48.29
27.6386	49.24
27.6488	47.87
27.659	48.67
27.6691	49.48
27.6793	49.15
27.6895	49.73
27.6996	49.48
27.7098	49.01
27.72	49.26
27.7301	50.49
27.7403	50.32
27.7504	50.39
27.7606	50.10
27.7708	50.18
27.7809	50.04
27.7911	50.96
27.8013	51.75
27.8114	50.97
27.8216	50.90
27.8318	50.89
27.8419	51.15
27.8521	51.46
27.8623	52.35
27.8724	51.74
27.8826	52.54
27.8928	51.85
27.9029	51.93
27.9131	52.04
27.9232	53.52
27.9334	53.31
27.9436	53.83
27.9537	53.51
27.9639	53.74
27.9741	53.18
27.9842	53.45
27.9944	52.90
28.0046	53.73
28.0147	53.90
28.0249	55.21
28.0351	55.74
28.0452	54.90
28.0554	55.98
28.0655	55.12
28.0757	55.21
28.0859	55.21
28.096	56.16
28.1062	56.23
28.1164	55.82
28.1265	56.37
28.1367	56.72
28.1469	57.27
28.157	56.70
28.1672	57.33
28.1774	57.88
28.1875	57.74
28.1977	58.04
28.2079	58.61
28.218	58.90
28.2282	58.52
28.2383	60.55
28.2485	59.33
28.2587	60.04
28.2688	61.14
28.279	59.37
28.2892	60.55
28.2993	60.71
28.3095	60.89
28.3197	61.26
28.3298	61.73
28.34	62.79
28.3502	61.57
28.3603	61.87
28.3705	61.65
28.3806	61.49
28.3908	63.28
28.401	61.94
28.4111	63.18
28.4213	62.35
28.4315	62.39
28.4416	60.57
28.4518	63.23
28.462	63.09
28.4721	62.49
28.4823	63.50
28.4925	65.29
28.5026	62.80
28.5128	62.65
28.523	62.70
28.5331	62.55
28.5433	61.69
28.5534	61.26
28.5636	62.66
28.5738	62.56
28.5839	61.75
28.5941	61.09
28.6043	62.36
28.6144	61.84
28.6246	61.65
28.6348	61.71
28.6449	61.93
28.6551	60.52
28.6653	61.88
28.6754	61.09
28.6856	60.52
28.6957	59.95
28.7059	60.80
28.7161	60.28
28.7262	60.26
28.7364	60.30
28.7466	60.20
28.7567	60.60
28.7669	59.62
28.7771	58.88
28.7872	60.09
28.7974	58.33
28.8076	58.96
28.8177	59.17
28.8279	57.70
28.8381	58.04
28.8482	58.88
28.8584	58.13
28.8685	57.46
28.8787	57.99
28.8889	57.35
28.899	56.70
28.9092	57.12
28.9194	55.38
28.9295	55.08
28.9397	55.98
28.9499	55.30
28.96	54.44
28.9702	54.93
28.9804	54.34
28.9905	55.11
29.0007	56.37
29.0108	54.57
29.021	54.27
29.0312	53.15
29.0413	52.35
29.0515	53.87
29.0617	53.85
29.0718	53.20
29.082	53.44
29.0922	52.84
29.1023	52.82
29.1125	52.54
29.1227	52.34
29.1328	51.14
29.143	51.21
29.1531	50.43
29.1633	50.51
29.1735	51.06
29.1836	50.74
29.1938	50.13
29.204	50.15
29.2141	49.27
29.2243	49.27
29.2345	49.55
29.2446	49.30
29.2548	49.88
29.265	48.35
29.2751	49.88
29.2853	48.60
29.2955	47.87
29.3056	49.85
29.3158	47.41
29.3259	47.82
29.3361	48.82
29.3463	46.87
29.3564	48.56
29.3666	48.10
29.3768	46.53
29.3869	46.69
29.3971	46.90
29.4073	46.16
29.4174	47.52
29.4276	46.71
29.4378	46.37
29.4479	46.31
29.4581	46.15
29.4682	45.87
29.4784	45.81
29.4886	45.24
29.4987	45.49
29.5089	46.09
29.5191	44.15
29.5292	45.03
29.5394	45.57
29.5496	44.99
29.5597	44.29
29.5699	44.90
29.5801	44.98
29.5902	45.19
29.6004	44.88
29.6106	44.35
29.6207	43.76
29.6309	45.24
29.641	44.47
29.6512	44.80
29.6614	43.59
29.6715	45.46
29.6817	43.19
29.6919	43.84
29.702	43.64
29.7122	43.52
29.7224	42.97
29.7325	43.51
29.7427	43.58
29.7529	43.99
29.763	43.86
29.7732	43.52
29.7833	42.51
29.7935	42.60
29.8037	42.27
29.8138	43.55
29.824	43.78
29.8342	43.34
29.8443	42.99
29.8545	43.45
29.8647	42.65
29.8748	42.30
29.885	43.51
29.8952	41.73
29.9053	42.40
29.9155	41.75
29.9257	42.56
29.9358	42.64
29.946	41.43
29.9561	41.54
29.9663	42.04
29.9765	42.26
29.9866	41.96
29.9968	42.18
30.007	42.40
30.0171	41.90
30.0273	42.32
30.0375	41.07
30.0476	40.72
30.0578	41.56
30.068	41.53
30.0781	41.48
30.0883	40.66
30.0984	41.52
30.1086	40.99
30.1188	41.41
30.1289	41.50
30.1391	40.04
30.1493	41.40
30.1594	41.04
30.1696	41.24
30.1798	40.32
30.1899	40.73
30.2001	40.68
30.2103	39.35
30.2204	39.98
30.2306	38.72
30.2408	40.47
30.2509	40.07
30.2611	40.39
30.2712	39.35
30.2814	39.60
30.2916	39.97
30.3017	40.10
30.3119	39.20
30.3221	38.85
30.3322	38.63
30.3424	38.41
30.3526	39.56
30.3627	39.05
30.3729	38.39
30.3831	38.76
30.3932	38.60
30.4034	37.71
30.4135	38.59
30.4237	37.89
30.4339	38.29
30.444	38.10
30.4542	38.63
30.4644	38.20
30.4745	37.30
30.4847	38.91
30.4949	38.82
30.505	37.68
30.5152	38.04
30.5254	37.46
30.5355	36.65
30.5457	37.70
30.5559	37.20
30.566	37.15
30.5762	38.01
30.5863	37.48
30.5965	36.32
30.6067	35.41
30.6168	37.05
30.627	35.85
30.6372	36.66
30.6473	36.99
30.6575	36.55
30.6677	35.98
30.6778	36.80
30.688	36.59
30.6982	36.10
30.7083	35.43
30.7185	36.53
30.7286	35.60
30.7388	35.70
30.749	35.59
30.7591	36.07
30.7693	34.83
30.7795	35.57
30.7896	35.74
30.7998	35.81
30.81	35.19
30.8201	34.96
30.8303	35.49
30.8405	34.52
30.8506	35.09
30.8608	34.60
30.871	35.10
30.8811	35.21
30.8913	35.22
30.9014	35.09
30.9116	35.12
30.9218	34.57
30.9319	35.20
30.9421	35.13
30.9523	34.49
30.9624	34.76
30.9726	35.29
30.9828	34.45
30.9929	34.16
31.0031	35.77
31.0133	34.74
31.0234	34.20
31.0336	34.45
31.0437	33.70
31.0539	33.99
31.0641	34.35
31.0742	34.68
31.0844	34.47
31.0946	34.21
31.1047	34.57
31.1149	33.88
31.1251	34.26
31.1352	34.34
31.1454	33.74
31.1556	33.51
31.1657	33.78
31.1759	32.90
31.186	32.79
31.1962	33.15
31.2064	33.29
31.2165	34.13
31.2267	34.44
31.2369	33.36
31.247	33.69
31.2572	33.52
31.2674	33.66
31.2775	33.28
31.2877	33.63
31.2979	33.68
31.308	32.49
31.3182	32.99
31.3284	33.85
31.3385	31.96
31.3487	33.88
31.3588	33.29
31.369	32.71
31.3792	33.19
31.3893	33.65
31.3995	32.40
31.4097	34.01
31.4198	32.96
31.43	33.67
31.4402	33.09
31.4503	32.44
31.4605	32.35
31.4707	33.41
31.4808	33.52
31.491	33.44
31.5011	32.02
31.5113	31.91
31.5215	31.86
31.5316	33.28
31.5418	32.15
31.552	32.97
31.5621	32.91
31.5723	32.91
31.5825	32.60
31.5926	33.05
31.6028	32.54
31.613	32.71
31.6231	32.39
31.6333	31.62
31.6435	31.85
31.6536	32.32
31.6638	32.02
31.6739	32.10
31.6841	33.01
31.6943	32.68
31.7044	33.30
31.7146	31.64
31.7248	32.79
31.7349	32.59
31.7451	32.55
31.7553	31.91
31.7654	32.44
31.7756	32.29
31.7858	31.44
31.7959	31.90
31.8061	32.38
31.8162	31.73
31.8264	32.34
31.8366	33.13
31.8467	32.22
31.8569	32.04
31.8671	31.29
31.8772	32.13
31.8874	31.89
31.8976	32.43
31.9077	31.71
31.9179	32.36
31.9281	32.29
31.9382	31.83
31.9484	31.89
31.9586	31.86
31.9687	31.76
31.9789	32.78
31.989	31.54
31.9992	31.15
32.0094	31.80
32.0195	31.88
32.0297	32.05
32.0399	32.39
32.05	32.02
32.0602	32.21
32.0704	31.65
32.0805	32.02
32.0907	31.84
32.1009	32.09
32.111	31.84
32.1212	31.98
32.1313	31.99
32.1415	31.81
32.1517	31.44
32.1618	31.43
32.172	31.57
32.1822	31.65
32.1923	31.66
32.2025	31.88
32.2127	31.73
32.2228	31.32
32.233	31.74
32.2432	31.53
32.2533	31.32
32.2635	31.59
32.2737	31.08
32.2838	31.14
32.294	31.76
32.3041	31.54
32.3143	32.33
32.3245	32.57
32.3346	31.32
32.3448	31.36
32.355	32.84
32.3651	31.59
32.3753	31.41
32.3855	32.27
32.3956	31.89
32.4058	31.80
32.416	32.50
32.4261	32.17
32.4363	31.20
32.4464	31.57
32.4566	32.13
32.4668	31.48
32.4769	31.98
32.4871	31.93
32.4973	31.85
32.5074	31.23
32.5176	30.64
32.5278	32.26
32.5379	31.19
32.5481	30.85
32.5583	32.07
32.5684	31.59
32.5786	31.34
32.5888	31.54
32.5989	31.30
32.6091	31.29
32.6192	31.46
32.6294	31.73
32.6396	30.93
32.6497	31.11
32.6599	31.55
32.6701	31.35
32.6802	31.36
32.6904	31.23
32.7006	30.68
32.7107	31.66
32.7209	31.92
32.7311	31.21
32.7412	31.74
32.7514	32.35
32.7615	32.13
32.7717	30.97
32.7819	31.80
32.792	30.52
32.8022	30.97
32.8124	32.16
32.8225	30.71
32.8327	31.20
32.8429	30.93
32.853	30.87
32.8632	31.41
32.8734	32.18
32.8835	30.70
32.8937	31.20
32.9039	31.43
32.914	31.14
32.9242	31.09
32.9343	31.15
32.9445	31.31
32.9547	30.32
32.9648	31.32
32.975	31.68
32.9852	32.09
32.9953	31.95
33.0055	30.71
33.0157	31.93
33.0258	31.78
33.036	30.93
33.0462	31.18
33.0563	32.02
33.0665	32.31
33.0766	31.52
33.0868	31.98
33.097	31.87
33.1071	31.92
33.1173	31.07
33.1275	32.04
33.1376	31.96
33.1478	31.75
33.158	31.05
33.1681	31.40
33.1783	31.70
33.1885	31.76
33.1986	31.52
33.2088	30.68
33.2189	32.23
33.2291	32.29
33.2393	31.27
33.2494	30.74
33.2596	31.87
33.2698	31.60
33.2799	30.85
33.2901	31.66
33.3003	31.57
33.3104	31.78
33.3206	32.35
33.3308	32.44
33.3409	31.82
33.3511	31.34
33.3613	31.54
33.3714	31.96
33.3816	31.29
33.3917	31.69
33.4019	31.76
33.4121	32.76
33.4222	31.45
33.4324	31.65
33.4426	31.37
33.4527	30.60
33.4629	32.26
33.4731	31.49
33.4832	31.08
33.4934	31.75
33.5036	31.90
33.5137	32.20
33.5239	31.07
33.534	31.44
33.5442	31.13
33.5544	31.87
33.5645	31.78
33.5747	31.11
33.5849	31.65
33.595	31.42
33.6052	31.32
33.6154	31.63
33.6255	29.99
33.6357	30.55
33.6459	31.10
33.656	30.43
33.6662	30.68
33.6764	30.83
33.6865	31.03
33.6967	31.01
33.7068	30.16
33.717	30.63
33.7272	29.57
33.7373	30.28
33.7475	30.65
33.7577	30.30
33.7678	29.82
33.778	29.79
33.7882	30.43
33.7983	29.20
33.8085	29.66
33.8187	29.49
33.8288	29.57
33.839	29.11
33.8491	28.68
33.8593	29.76
33.8695	29.43
33.8796	29.22
33.8898	28.35
33.9	28.83
33.9101	29.12
33.9203	28.52
33.9305	29.32
33.9406	28.90
33.9508	28.27
33.961	28.14
33.9711	27.82
33.9813	29.01
33.9915	28.47
34.0016	28.54
34.0118	28.50
34.0219	28.55
34.0321	28.59
34.0423	28.22
34.0524	27.48
34.0626	27.69
34.0728	28.85
34.0829	27.35
34.0931	28.01
34.1033	27.71
34.1134	27.75
34.1236	27.41
34.1338	27.73
34.1439	27.69
34.1541	27.83
34.1642	26.93
34.1744	27.34
34.1846	27.58
34.1947	27.31
34.2049	27.12
34.2151	27.08
34.2252	27.01
34.2354	27.13
34.2456	26.81
34.2557	27.14
34.2659	26.80
34.2761	26.80
34.2862	27.13
34.2964	26.28
34.3066	26.73
34.3167	27.05
34.3269	26.30
34.337	26.76
34.3472	26.88
34.3574	26.82
34.3675	26.62
34.3777	26.54
34.3879	26.77
34.398	26.16
34.4082	26.98
34.4184	26.54
34.4285	26.05
34.4387	26.46
34.4489	26.97
34.459	26.02
34.4692	26.73
34.4793	26.13
34.4895	26.29
34.4997	26.21
34.5098	26.79
34.52	26.10
34.5302	26.47
34.5403	25.70
34.5505	25.59
34.5607	26.34
34.5708	26.00
34.581	26.35
34.5912	26.92
34.6013	25.62
34.6115	26.24
34.6217	25.80
34.6318	26.62
34.642	25.74
34.6521	25.10
34.6623	26.27
34.6725	25.91
34.6826	25.23
34.6928	25.43
34.703	26.07
34.7131	25.92
34.7233	26.12
34.7335	25.20
34.7436	26.19
34.7538	26.01
34.764	25.88
34.7741	25.76
34.7843	25.48
34.7944	24.66
34.8046	25.58
34.8148	26.28
34.8249	25.55
34.8351	25.47
34.8453	25.89
34.8554	25.12
34.8656	25.84
34.8758	25.69
34.8859	25.07
34.8961	25.51
34.9063	25.40
34.9164	25.01
34.9266	25.21
34.9367	25.68
34.9469	25.74
34.9571	25.12
34.9672	25.51
34.9774	25.71
34.9876	25.09
34.9977	25.20
35.0079	26.01
35.0181	25.98
35.0282	24.80
35.0384	25.05
35.0486	25.32
35.0587	25.47
35.0689	25.42
35.0791	24.99
35.0892	24.92
35.0994	25.50
35.1095	25.54
35.1197	25.62
35.1299	24.79
35.14	25.52
35.1502	25.05
35.1604	25.42
35.1705	25.35
35.1807	24.82
35.1909	25.15
35.201	24.70
35.2112	25.57
35.2214	25.24
35.2315	25.54
35.2417	25.27
35.2518	25.76
35.262	24.68
35.2722	25.28
35.2823	24.70
35.2925	24.78
35.3027	25.37
35.3128	24.76
35.323	24.85
35.3332	24.62
35.3433	24.18
35.3535	25.28
35.3637	24.59
35.3738	24.60
35.384	25.40
35.3942	24.28
35.4043	24.81
35.4145	25.30
35.4246	24.58
35.4348	24.68
35.445	25.02
35.4551	24.97
35.4653	24.67
35.4755	24.67
35.4856	24.62
35.4958	24.61
35.506	24.42
35.5161	25.19
35.5263	25.04
35.5365	25.48
35.5466	24.57
35.5568	24.90
35.5669	24.63
35.5771	25.11
35.5873	24.09
35.5974	24.42
35.6076	24.57
35.6178	25.21
35.6279	24.60
35.6381	24.35
35.6483	25.10
35.6584	25.13
35.6686	24.54
35.6788	24.62
35.6889	23.90
35.6991	24.70
35.7093	24.60
35.7194	24.26
35.7296	24.26
35.7397	24.63
35.7499	25.01
35.7601	24.26
35.7702	24.32
35.7804	24.70
35.7906	24.25
35.8007	24.16
35.8109	24.11
35.8211	24.18
35.8312	24.34
35.8414	24.38
35.8516	24.51
35.8617	25.13
35.8719	24.91
35.882	24.00
35.8922	24.32
35.9024	24.92
35.9125	24.40
35.9227	23.84
35.9329	24.41
35.943	25.12
35.9532	23.76
35.9634	24.57
35.9735	23.98
35.9837	23.68
35.9939	24.93
36.004	24.50
36.0142	24.10
36.0244	23.96
36.0345	24.18
36.0447	23.78
36.0548	24.64
36.065	24.24
36.0752	24.53
36.0853	23.72
36.0955	23.91
36.1057	23.95
36.1158	25.00
36.126	24.66
36.1362	24.01
36.1463	24.23
36.1565	24.19
36.1667	24.27
36.1768	24.44
36.187	23.79
36.1971	23.51
36.2073	24.21
36.2175	24.23
36.2276	23.59
36.2378	25.11
36.248	23.63
36.2581	24.26
36.2683	25.01
36.2785	24.55
36.2886	23.87
36.2988	24.21
36.309	24.04
36.3191	24.07
36.3293	24.80
36.3395	24.43
36.3496	23.90
36.3598	23.93
36.3699	24.05
36.3801	24.34
36.3903	24.07
36.4004	24.03
36.4106	24.87
36.4208	24.71
36.4309	23.89
36.4411	23.89
36.4513	25.04
36.4614	24.04
36.4716	24.50
36.4818	24.16
36.4919	24.20
36.5021	24.61
36.5122	24.37
36.5224	24.05
36.5326	24.33
36.5427	24.57
36.5529	24.52
36.5631	24.09
36.5732	24.39
36.5834	24.22
36.5936	24.38
36.6037	24.66
36.6139	24.19
36.6241	24.71
36.6342	23.82
36.6444	24.57
36.6546	24.37
36.6647	24.22
36.6749	24.20
36.685	24.21
36.6952	24.45
36.7054	24.54
36.7155	24.30
36.7257	24.52
36.7359	23.99
36.746	24.27
36.7562	23.96
36.7664	24.31
36.7765	24.03
36.7867	25.32
36.7969	24.20
36.807	25.08
36.8172	25.47
36.8273	24.83
36.8375	24.77
36.8477	25.05
36.8578	24.62
36.868	25.47
36.8782	24.92
36.8883	25.04
36.8985	24.96
36.9087	24.74
36.9188	24.93
36.929	24.78
36.9392	24.71
36.9493	24.65
36.9595	24.76
36.9696	25.02
36.9798	24.85
36.99	24.47
37.0001	25.50
37.0103	24.47
37.0205	24.61
37.0306	24.23
37.0408	23.81
37.051	24.99
37.0611	24.95
37.0713	25.19
37.0815	24.85
37.0916	25.39
37.1018	24.88
37.112	24.54
37.1221	24.77
37.1323	24.97
37.1424	24.05
37.1526	25.02
37.1628	25.50
37.1729	25.41
37.1831	25.23
37.1933	24.77
37.2034	25.63
37.2136	25.74
37.2238	25.93
37.2339	25.02
37.2441	24.98
37.2543	25.10
37.2644	26.07
37.2746	25.53
37.2847	25.69
37.2949	25.75
37.3051	25.79
37.3152	24.48
37.3254	25.09
37.3356	25.10
37.3457	25.48
37.3559	25.79
37.3661	25.48
37.3762	24.74
37.3864	25.21
37.3966	25.39
37.4067	25.32
37.4169	25.40
37.4271	26.12
37.4372	25.58
37.4474	26.34
37.4575	24.85
37.4677	25.84
37.4779	25.60
37.488	25.66
37.4982	25.43
37.5084	25.95
37.5185	25.90
37.5287	25.75
37.5389	25.90
37.549	26.12
37.5592	26.53
37.5694	26.46
37.5795	25.90
37.5897	26.72
37.5998	25.56
37.61	26.70
37.6202	25.96
37.6303	25.80
37.6405	26.54
37.6507	26.14
37.6608	25.98
37.671	26.15
37.6812	25.76
37.6913	26.54
37.7015	26.67
37.7117	26.93
37.7218	26.82
37.732	26.93
37.7422	26.10
37.7523	26.41
37.7625	25.83
37.7726	26.81
37.7828	26.74
37.793	26.34
37.8031	26.60
37.8133	26.67
37.8235	26.68
37.8336	26.87
37.8438	26.93
37.854	27.23
37.8641	26.44
37.8743	26.67
37.8845	27.55
37.8946	27.05
37.9048	27.17
37.9149	26.77
37.9251	27.28
37.9353	27.41
37.9454	26.79
37.9556	27.71
37.9658	26.52
37.9759	27.45
37.9861	27.42
37.9963	26.70
38.0064	27.63
38.0166	27.24
38.0268	27.87
38.0369	27.84
38.0471	27.32
38.0573	27.01
38.0674	28.09
38.0776	27.62
38.0877	27.60
38.0979	27.65
38.1081	27.88
38.1182	27.59
38.1284	27.79
38.1386	28.12
38.1487	27.67
38.1589	28.15
38.1691	27.87
38.1792	27.55
38.1894	28.07
38.1996	28.88
38.2097	28.15
38.2199	27.45
38.23	28.40
38.2402	28.00
38.2504	28.35
38.2605	28.33
38.2707	28.43
38.2809	28.07
38.291	27.45
38.3012	28.16
38.3114	27.55
38.3215	28.37
38.3317	28.01
38.3419	28.43
38.352	27.99
38.3622	28.88
38.3724	28.37
38.3825	28.66
38.3927	28.78
38.4028	28.85
38.413	27.77
38.4232	28.90
38.4333	28.45
38.4435	28.95
38.4537	28.65
38.4638	28.93
38.474	28.57
38.4842	28.52
38.4943	28.46
38.5045	28.02
38.5147	27.99
38.5248	28.27
38.535	28.53
38.5451	28.24
38.5553	28.66
38.5655	29.07
38.5756	29.28
38.5858	28.66
38.596	28.65
38.6061	28.33
38.6163	28.57
38.6265	28.41
38.6366	28.21
38.6468	28.66
38.657	28.27
38.6671	28.96
38.6773	28.90
38.6875	27.84
38.6976	29.16
38.7078	28.57
38.7179	28.80
38.7281	28.64
38.7383	28.87
38.7484	28.18
38.7586	28.89
38.7688	28.64
38.7789	29.01
38.7891	28.70
38.7993	28.38
38.8094	28.34
38.8196	28.56
38.8298	27.91
38.8399	27.76
38.8501	28.77
38.8602	27.80
38.8704	28.06
38.8806	28.18
38.8907	28.31
38.9009	28.85
38.9111	28.79
38.9212	27.70
38.9314	27.90
38.9416	28.28
38.9517	27.50
38.9619	27.57
38.9721	27.46
38.9822	27.73
38.9924	27.76
39.0025	28.21
39.0127	27.48
39.0229	27.95
39.033	26.59
39.0432	27.37
39.0534	27.07
39.0635	27.80
39.0737	27.30
39.0839	27.05
39.094	27.93
39.1042	27.30
39.1144	27.99
39.1245	26.91
39.1347	27.09
39.1449	27.76
39.155	27.34
39.1652	26.92
39.1753	27.10
39.1855	26.48
39.1957	28.02
39.2058	27.62
39.216	27.61
39.2262	26.52
39.2363	26.48
39.2465	27.30
39.2567	26.70
39.2668	27.19
39.277	27.12
39.2872	26.31
39.2973	26.30
39.3075	27.20
39.3176	26.13
39.3278	26.43
39.338	26.73
39.3481	26.98
39.3583	26.12
39.3685	26.82
39.3786	26.60
39.3888	26.37
39.399	26.46
39.4091	26.87
39.4193	27.13
39.4295	26.40
39.4396	26.32
39.4498	26.21
39.46	26.29
39.4701	25.73
39.4803	26.65
39.4904	25.63
39.5006	26.05
39.5108	26.50
39.5209	26.62
39.5311	26.05
39.5413	26.12
39.5514	25.65
39.5616	25.69
39.5718	26.10
39.5819	26.26
39.5921	25.95
39.6023	25.27
39.6124	26.40
39.6226	25.87
39.6327	26.00
39.6429	25.58
39.6531	25.51
39.6632	25.77
39.6734	24.67
39.6836	24.97
39.6937	25.30
39.7039	25.02
39.7141	25.25
39.7242	25.49
39.7344	26.02
39.7446	25.85
39.7547	25.84
39.7649	25.04
39.7751	24.82
39.7852	25.36
39.7954	25.23
39.8055	25.21
39.8157	25.23
39.8259	25.12
39.836	25.94
39.8462	25.04
39.8564	25.15
39.8665	25.16
39.8767	24.20
39.8869	25.01
39.897	25.10
39.9072	25.21
39.9174	24.87
39.9275	25.27
39.9377	25.39
39.9478	25.13
39.958	24.55
39.9682	25.78
39.9783	25.18
39.9885	24.87
39.9987	24.46
40.0088	25.13
