5.0023	52.33
5.0125	51.93
5.0226	50.73
5.0328	50.27
5.043	49.82
5.0531	50.01
5.0633	47.77
5.0735	48.57
5.0836	46.45
5.0938	46.05
5.1039	46.29
5.1141	45.95
5.1243	44.88
5.1344	43.73
5.1446	43.78
5.1548	43.60
5.1649	42.68
5.1751	41.36
5.1853	42.59
5.1954	41.71
5.2056	40.60
5.2158	40.68
5.2259	39.46
5.2361	39.27
5.2462	38.25
5.2564	38.46
5.2666	38.13
5.2767	36.89
5.2869	36.28
5.2971	38.13
5.3072	36.11
5.3174	36.43
5.3276	35.57
5.3377	36.07
5.3479	35.05
5.3581	35.27
5.3682	33.65
5.3784	33.67
5.3886	34.20
5.3987	33.04
5.4089	33.20
5.419	32.90
5.4292	32.16
5.4394	32.13
5.4495	32.55
5.4597	31.84
5.4699	31.51
5.48	30.55
5.4902	30.05
5.5004	30.53
5.5105	30.77
5.5207	29.05
5.5309	29.21
5.541	29.28
5.5512	28.71
5.5613	29.32
5.5715	29.63
5.5817	28.72
5.5918	27.93
5.602	27.74
5.6122	28.07
5.6223	28.47
5.6325	28.70
5.6427	28.07
5.6528	27.96
5.663	27.49
5.6732	26.51
5.6833	26.55
5.6935	27.38
5.7036	25.68
5.7138	26.20
5.724	26.29
5.7341	26.32
5.7443	25.94
5.7545	26.04
5.7646	24.72
5.7748	25.20
5.785	25.57
5.7951	25.46
5.8053	25.04
5.8155	25.81
5.8256	25.70
5.8358	25.05
5.846	25.63
5.8561	25.36
5.8663	25.20
5.8764	25.04
5.8866	25.02
5.8968	25.03
5.9069	24.99
5.9171	25.21
5.9273	25.30
5.9374	24.74
5.9476	24.81
5.9578	24.44
5.9679	25.06
5.9781	24.91
5.9883	25.07
5.9984	24.17
6.0086	24.68
6.0187	25.04
6.0289	25.01
6.0391	24.21
6.0492	24.46
6.0594	24.79
6.0696	24.70
6.0797	24.29
6.0899	24.72
6.1001	24.35
6.1102	24.49
6.1204	24.20
6.1306	24.32
6.1407	24.40
6.1509	24.18
6.1611	24.45
6.1712	23.84
6.1814	24.26
6.1915	23.88
6.2017	24.03
6.2119	23.87
6.222	24.30
6.2322	23.94
6.2424	23.80
6.2525	24.66
6.2627	23.66
6.2729	24.15
6.283	24.28
6.2932	24.60
6.3034	23.36
6.3135	23.60
6.3237	23.59
6.3338	24.84
6.344	24.73
6.3542	23.96
6.3643	24.35
6.3745	23.30
6.3847	23.27
6.3948	24.23
6.405	23.91
6.4152	23.70
6.4253	24.16
6.4355	24.27
6.4457	23.38
6.4558	24.00
6.466	23.90
6.4762	23.70
6.4863	23.93
6.4965	24.17
6.5066	23.94
6.5168	23.84
6.527	23.93
6.5371	22.95
6.5473	23.12
6.5575	23.91
6.5676	24.20
6.5778	24.59
6.588	24.02
6.5981	24.21
6.6083	24.17
6.6185	24.54
6.6286	24.49
6.6388	24.31
6.6489	24.59
6.6591	24.38
6.6693	23.68
6.6794	23.57
6.6896	24.78
6.6998	24.46
6.7099	24.46
6.7201	23.53
6.7303	25.36
6.7404	24.38
6.7506	23.39
6.7608	23.76
6.7709	24.01
6.7811	23.87
6.7913	24.43
6.8014	24.32
6.8116	23.98
6.8217	24.18
6.8319	22.94
6.8421	23.62
6.8522	24.19
6.8624	24.31
6.8726	24.38
6.8827	25.31
6.8929	24.70
6.9031	24.97
6.9132	23.93
6.9234	23.61
6.9336	23.90
6.9437	24.36
6.9539	24.58
6.964	24.64
6.9742	24.35
6.9844	24.02
6.9945	24.35
7.0047	24.76
7.0149	24.35
7.025	24.51
7.0352	24.78
7.0454	23.80
7.0555	24.70
7.0657	24.51
7.0759	24.20
7.086	24.05
7.0962	25.04
7.1064	24.80
7.1165	25.11
7.1267	25.05
7.1368	24.51
7.147	24.55
7.1572	24.93
7.1673	24.74
7.1775	25.26
7.1877	25.18
7.1978	25.03
7.208	25.48
7.2182	25.16
7.2283	24.31
7.2385	24.27
7.2487	25.16
7.2588	24.41
7.269	24.22
7.2791	25.06
7.2893	25.32
7.2995	25.57
7.3096	25.25
7.3198	25.34
7.33	25.77
7.3401	26.04
7.3503	25.42
7.3605	24.62
7.3706	25.79
7.3808	24.51
7.391	25.77
7.4011	25.38
7.4113	25.90
7.4215	25.30
7.4316	25.34
7.4418	25.52
7.4519	24.95
7.4621	25.12
7.4723	25.76
7.4824	24.71
7.4926	25.24
7.5028	24.85
7.5129	25.95
7.5231	26.25
7.5333	25.31
7.5434	25.09
7.5536	25.80
7.5638	26.45
7.5739	25.03
7.5841	25.90
7.5942	25.20
7.6044	25.68
7.6146	26.62
7.6247	25.74
7.6349	26.01
7.6451	26.16
7.6552	25.63
7.6654	24.76
7.6756	26.00
7.6857	25.89
7.6959	26.26
7.7061	26.25
7.7162	26.21
7.7264	25.78
7.7365	26.09
7.7467	27.25
7.7569	26.43
7.767	26.20
7.7772	26.45
7.7874	26.66
7.7975	25.90
7.8077	26.32
7.8179	26.24
7.828	25.88
7.8382	26.13
7.8484	26.83
7.8585	26.23
7.8687	26.56
7.8789	25.54
7.889	26.43
7.8992	27.12
7.9093	26.48
7.9195	26.20
7.9297	27.01
7.9398	26.79
7.95	26.51
7.9602	27.08
7.9703	26.48
7.9805	26.92
7.9907	26.82
8.0008	27.29
8.011	27.29
8.0212	26.39
8.0313	27.56
8.0415	27.11
8.0516	26.87
8.0618	26.98
8.072	27.41
8.0821	27.36
8.0923	27.07
8.1025	27.93
8.1126	27.32
8.1228	27.52
8.133	27.63
8.1431	27.55
8.1533	26.53
8.1635	28.43
8.1736	27.16
8.1838	26.92
8.194	27.98
8.2041	27.32
8.2143	27.37
8.2244	27.49
8.2346	27.59
8.2448	27.40
8.2549	27.35
8.2651	27.34
8.2753	27.82
8.2854	27.30
8.2956	27.76
8.3058	27.53
8.3159	27.97
8.3261	27.43
8.3363	27.90
8.3464	27.88
8.3566	28.52
8.3667	28.63
8.3769	28.18
8.3871	28.46
8.3972	28.38
8.4074	27.96
8.4176	29.32
8.4277	27.55
8.4379	28.09
8.4481	28.04
8.4582	28.00
8.4684	28.03
8.4786	27.82
8.4887	28.13
8.4989	28.90
8.5091	28.09
8.5192	27.41
8.5294	27.26
8.5395	28.25
8.5497	28.02
8.5599	28.40
8.57	28.42
8.5802	30.01
8.5904	28.73
8.6005	29.41
8.6107	28.20
8.6209	28.50
8.631	28.51
8.6412	28.68
8.6514	28.11
8.6615	28.18
8.6717	28.91
8.6818	28.65
8.692	28.95
8.7022	28.55
8.7123	28.83
8.7225	28.70
8.7327	28.18
8.7428	29.66
8.753	29.33
8.7632	28.32
8.7733	29.76
8.7835	29.58
8.7937	29.04
8.8038	29.20
8.814	28.85
8.8242	29.37
8.8343	29.38
8.8445	28.94
8.8546	29.03
8.8648	30.46
8.875	29.88
8.8851	29.05
8.8953	30.18
8.9055	29.62
8.9156	30.10
8.9258	29.60
8.936	29.42
8.9461	29.64
8.9563	29.57
8.9665	29.89
8.9766	29.15
8.9868	29.61
8.9969	29.87
9.0071	30.12
9.0173	29.33
9.0274	29.38
9.0376	29.82
9.0478	29.39
9.0579	30.34
9.0681	31.23
9.0783	29.98
9.0884	29.41
9.0986	29.38
9.1088	30.08
9.1189	30.01
9.1291	29.83
9.1393	29.38
9.1494	30.15
9.1596	30.09
9.1697	30.41
9.1799	30.32
9.1901	30.36
9.2002	30.42
9.2104	30.08
9.2206	29.26
9.2307	29.99
9.2409	31.73
9.2511	30.81
9.2612	30.96
9.2714	30.69
9.2816	30.05
9.2917	30.95
9.3019	30.96
9.312	30.59
9.3222	30.11
9.3324	30.83
9.3425	31.51
9.3527	30.83
9.3629	31.98
9.373	30.54
9.3832	32.07
9.3934	31.73
9.4035	30.62
9.4137	31.16
9.4239	31.55
9.434	31.04
9.4442	31.12
9.4544	31.60
9.4645	30.39
9.4747	31.86
9.4848	31.87
9.495	31.26
9.5052	31.17
9.5153	30.61
9.5255	31.57
9.5357	31.40
9.5458	31.38
9.556	31.65
9.5662	30.74
9.5763	32.24
9.5865	31.46
9.5967	30.99
9.6068	31.54
9.617	31.01
9.6271	32.52
9.6373	31.99
9.6475	30.45
9.6576	31.19
9.6678	31.51
9.678	31.36
9.6881	31.19
9.6983	31.77
9.7085	31.51
9.7186	31.91
9.7288	32.13
9.739	31.59
9.7491	31.71
9.7593	31.52
9.7694	32.20
9.7796	31.87
9.7898	31.59
9.7999	32.69
9.8101	32.19
9.8203	32.41
9.8304	32.43
9.8406	32.02
9.8508	32.18
9.8609	32.79
9.8711	32.26
9.8813	31.93
9.8914	31.56
9.9016	32.39
9.9118	31.96
9.9219	32.05
9.9321	32.15
9.9422	32.40
9.9524	32.04
9.9626	32.32
9.9727	32.12
9.9829	33.16
9.9931	33.37
10.0032	32.29
10.0134	32.72
10.0236	32.84
10.0337	33.40
10.0439	32.79
10.0541	33.41
10.0642	33.63
10.0744	32.17
10.0845	33.22
10.0947	33.11
10.1049	32.84
10.115	33.62
10.1252	32.57
10.1354	32.76
10.1455	33.71
10.1557	33.32
10.1659	32.99
10.176	32.77
10.1862	33.32
10.1964	32.79
10.2065	33.30
10.2167	33.16
10.2269	33.23
10.237	33.01
10.2472	33.04
10.2573	34.02
10.2675	34.08
10.2777	34.10
10.2878	34.21
10.298	34.39
10.3082	33.43
10.3183	33.48
10.3285	33.37
10.3387	32.70
10.3488	33.79
10.359	34.04
10.3692	33.85
10.3793	33.08
10.3895	33.91
10.3996	33.55
10.4098	33.98
10.42	34.02
10.4301	33.52
10.4403	34.40
10.4505	34.02
10.4606	33.97
10.4708	34.74
10.481	34.09
10.4911	34.29
10.5013	34.07
10.5115	34.62
10.5216	34.46
10.5318	33.85
10.542	35.20
10.5521	34.07
10.5623	33.97
10.5724	34.20
10.5826	34.88
10.5928	34.35
10.6029	34.39
10.6131	34.62
10.6233	34.09
10.6334	34.46
10.6436	34.91
10.6538	34.09
10.6639	34.78
10.6741	35.08
10.6843	34.84
10.6944	33.88
10.7046	34.78
10.7147	35.86
10.7249	35.12
10.7351	34.27
10.7452	34.76
10.7554	35.16
10.7656	34.16
10.7757	35.34
10.7859	35.68
10.7961	35.49
10.8062	35.12
10.8164	35.78
10.8266	34.97
10.8367	34.65
10.8469	35.12
10.8571	35.19
10.8672	34.90
10.8774	35.75
10.8875	34.93
10.8977	35.83
10.9079	36.41
10.918	35.80
10.9282	34.83
10.9384	35.65
10.9485	36.55
10.9587	35.82
10.9689	35.47
10.979	35.74
10.9892	35.54
10.9994	35.91
11.0095	35.50
11.0197	36.45
11.0298	35.75
11.04	35.88
11.0502	35.26
11.0603	35.96
11.0705	36.03
11.0807	35.93
11.0908	35.94
11.101	36.58
11.1112	37.12
11.1213	36.28
11.1315	36.29
11.1417	37.03
11.1518	36.23
11.162	35.71
11.1722	37.25
11.1823	36.66
11.1925	35.99
11.2026	36.34
11.2128	36.63
11.223	35.99
11.2331	36.72
11.2433	37.32
11.2535	35.33
11.2636	37.48
11.2738	36.93
11.284	36.66
11.2941	37.74
11.3043	37.25
11.3145	36.60
11.3246	37.15
11.3348	38.09
11.3449	36.79
11.3551	37.10
11.3653	37.60
11.3754	37.40
11.3856	37.51
11.3958	37.55
11.4059	37.75
11.4161	37.16
11.4263	37.49
11.4364	37.79
11.4466	37.87
11.4568	38.09
11.4669	36.96
11.4771	37.88
11.4873	38.03
11.4974	37.64
11.5076	37.61
11.5177	38.26
11.5279	37.27
11.5381	38.24
11.5482	38.47
11.5584	38.39
11.5686	37.84
11.5787	38.51
11.5889	38.48
11.5991	38.16
11.6092	37.84
11.6194	38.07
11.6296	37.74
11.6397	38.91
11.6499	37.54
11.66	38.23
11.6702	38.45
11.6804	38.95
11.6905	38.55
11.7007	38.68
11.7109	38.95
11.721	38.45
11.7312	39.52
11.7414	39.16
11.7515	38.16
11.7617	38.55
11.7719	39.22
11.782	38.87
11.7922	38.76
11.8023	38.41
11.8125	38.43
11.8227	39.74
11.8328	39.35
11.843	39.22
11.8532	39.00
11.8633	39.15
11.8735	39.39
11.8837	39.73
11.8938	39.43
11.904	40.18
11.9142	39.29
11.9243	39.58
11.9345	39.62
11.9447	39.56
11.9548	39.89
11.965	40.11
11.9751	39.28
11.9853	40.71
11.9955	40.75
12.0056	40.38
12.0158	40.70
12.026	39.71
12.0361	40.13
12.0463	40.52
12.0565	39.46
12.0666	40.37
12.0768	40.34
12.087	40.12
12.0971	40.18
12.1073	39.77
12.1174	41.18
12.1276	40.87
12.1378	40.48
12.1479	42.02
12.1581	41.13
12.1683	41.30
12.1784	41.32
12.1886	41.24
12.1988	40.51
12.2089	40.87
12.2191	41.60
12.2293	42.18
12.2394	40.27
12.2496	41.50
12.2598	41.01
12.2699	41.40
12.2801	40.99
12.2902	42.09
12.3004	43.01
12.3106	42.49
12.3207	41.83
12.3309	42.20
12.3411	42.46
12.3512	42.49
12.3614	41.39
12.3716	41.73
12.3817	42.61
12.3919	41.41
12.4021	42.46
12.4122	41.76
12.4224	42.48
12.4325	42.93
12.4427	42.92
12.4529	41.63
12.463	42.64
12.4732	43.21
12.4834	43.68
12.4935	42.33
12.5037	43.17
12.5139	43.18
12.524	42.99
12.5342	44.00
12.5444	42.60
12.5545	44.78
12.5647	43.83
12.5749	43.61
12.585	44.59
12.5952	43.08
12.6053	43.13
12.6155	44.15
12.6257	42.69
12.6358	43.47
12.646	44.37
12.6562	44.70
12.6663	44.25
12.6765	44.24
12.6867	43.73
12.6968	44.20
12.707	44.75
12.7172	44.98
12.7273	44.45
12.7375	43.83
12.7476	45.23
12.7578	45.15
12.768	44.40
12.7781	44.87
12.7883	45.22
12.7985	44.87
12.8086	46.37
12.8188	44.95
12.829	44.98
12.8391	45.01
12.8493	45.09
12.8595	45.96
12.8696	45.76
12.8798	45.62
12.89	45.60
12.9001	46.01
12.9103	45.56
12.9204	46.21
12.9306	45.26
12.9408	45.98
12.9509	45.77
12.9611	45.74
12.9713	45.80
12.9814	47.27
12.9916	46.01
13.0018	47.16
13.0119	46.96
13.0221	46.68
13.0323	46.40
13.0424	47.24
13.0526	46.61
13.0627	46.41
13.0729	47.46
13.0831	47.41
13.0932	47.63
13.1034	47.77
13.1136	47.52
13.1237	47.60
13.1339	46.44
13.1441	47.95
13.1542	47.88
13.1644	47.49
13.1746	48.06
13.1847	47.92
13.1949	48.29
13.2051	47.39
13.2152	46.51
13.2254	47.70
13.2355	48.73
13.2457	49.35
13.2559	49.07
13.266	48.91
13.2762	48.95
13.2864	48.20
13.2965	48.59
13.3067	49.08
13.3169	49.67
13.327	49.25
13.3372	48.52
13.3474	49.73
13.3575	49.74
13.3677	50.19
13.3778	49.27
13.388	49.16
13.3982	50.17
13.4083	50.52
13.4185	49.34
13.4287	50.52
13.4388	50.93
13.449	50.54
13.4592	48.86
13.4693	50.33
13.4795	49.89
13.4897	49.63
13.4998	49.85
13.51	51.41
13.5201	50.87
13.5303	51.70
13.5405	50.08
13.5506	51.46
13.5608	51.16
13.571	51.73
13.5811	51.49
13.5913	51.30
13.6015	52.22
13.6116	52.13
13.6218	51.70
13.632	51.00
13.6421	51.09
13.6523	53.80
13.6625	51.87
13.6726	52.37
13.6828	51.82
13.6929	53.15
13.7031	51.95
13.7133	52.97
13.7234	52.40
13.7336	52.62
13.7438	52.89
13.7539	52.96
13.7641	53.68
13.7743	52.60
13.7844	51.94
13.7946	54.11
13.8048	53.18
13.8149	53.34
13.8251	54.71
13.8352	53.74
13.8454	55.10
13.8556	53.57
13.8657	53.89
13.8759	54.91
13.8861	55.63
13.8962	54.64
13.9064	54.74
13.9166	54.87
13.9267	55.72
13.9369	55.26
13.9471	55.91
13.9572	56.11
13.9674	54.88
13.9776	55.53
13.9877	55.89
13.9979	55.38
14.008	56.59
14.0182	55.52
14.0284	55.98
14.0385	56.29
14.0487	55.74
14.0589	56.12
14.069	57.14
14.0792	57.59
14.0894	56.13
14.0995	56.28
14.1097	56.74
14.1199	56.01
14.13	57.38
14.1402	58.20
14.1503	56.36
14.1605	58.07
14.1707	57.16
14.1808	58.50
14.191	56.40
14.2012	57.41
14.2113	58.12
14.2215	58.58
14.2317	57.26
14.2418	58.11
14.252	59.49
14.2622	58.93
14.2723	58.48
14.2825	59.71
14.2927	59.31
14.3028	58.38
14.313	60.40
14.3231	58.42
14.3333	59.39
14.3435	59.46
14.3536	60.56
14.3638	60.66
14.374	60.15
14.3841	59.69
14.3943	61.20
14.4045	60.09
14.4146	60.76
14.4248	59.70
14.435	60.77
14.4451	61.27
14.4553	60.58
14.4654	61.96
14.4756	60.24
14.4858	61.08
14.4959	62.45
14.5061	62.39
14.5163	61.85
14.5264	63.28
14.5366	62.97
14.5468	61.03
14.5569	62.14
14.5671	61.76
14.5773	61.71
14.5874	63.19
14.5976	62.96
14.6078	63.66
14.6179	63.76
14.6281	62.20
14.6382	63.04
14.6484	65.22
14.6586	64.25
14.6687	64.32
14.6789	64.74
14.6891	64.23
14.6992	64.21
14.7094	63.48
14.7196	64.62
14.7297	65.85
14.7399	64.57
14.7501	64.67
14.7602	65.80
14.7704	65.43
14.7805	64.81
14.7907	65.80
14.8009	67.11
14.811	64.30
14.8212	65.62
14.8314	68.16
14.8415	66.94
14.8517	66.13
14.8619	66.48
14.872	67.26
14.8822	66.82
14.8924	68.57
14.9025	67.49
14.9127	65.88
14.9229	67.24
14.933	66.38
14.9432	67.54
14.9533	67.60
14.9635	67.38
14.9737	67.87
14.9838	68.40
14.994	67.31
15.0042	70.02
15.0143	68.38
15.0245	68.68
15.0347	69.46
15.0448	69.32
15.055	70.49
15.0652	69.62
15.0753	69.08
15.0855	69.93
15.0956	69.51
15.1058	70.74
15.116	71.41
15.1261	70.65
15.1363	69.95
15.1465	71.29
15.1566	70.91
15.1668	71.85
15.177	72.21
15.1871	72.49
15.1973	72.44
15.2075	72.22
15.2176	70.81
15.2278	70.93
15.238	70.23
15.2481	72.13
15.2583	73.02
15.2684	72.14
15.2786	72.86
15.2888	73.21
15.2989	72.48
15.3091	74.84
15.3193	73.65
15.3294	74.55
15.3396	72.80
15.3498	75.00
15.3599	74.20
15.3701	75.74
15.3803	74.19
15.3904	73.94
15.4006	73.98
15.4107	76.77
15.4209	75.56
15.4311	76.06
15.4412	77.16
15.4514	76.38
15.4616	76.46
15.4717	77.54
15.4819	75.35
15.4921	77.49
15.5022	76.25
15.5124	75.29
15.5226	76.41
15.5327	77.36
15.5429	76.89
15.553	77.91
15.5632	78.66
15.5734	77.98
15.5835	79.32
15.5937	78.60
15.6039	78.49
15.614	78.76
15.6242	79.66
15.6344	80.02
15.6445	79.13
15.6547	81.12
15.6649	79.31
15.675	81.60
15.6852	79.79
15.6954	80.69
15.7055	79.40
15.7157	80.91
15.7258	81.10
15.736	81.35
15.7462	80.69
15.7563	80.60
15.7665	81.33
15.7767	81.91
15.7868	82.52
15.797	80.06
15.8072	83.45
15.8173	82.83
15.8275	82.13
15.8377	82.65
15.8478	84.08
15.858	82.75
15.8681	83.29
15.8783	84.04
15.8885	84.90
15.8986	83.30
15.9088	85.70
15.919	84.37
15.9291	85.47
15.9393	84.63
15.9495	83.76
15.9596	85.48
15.9698	84.73
15.98	86.31
15.9901	85.63
16.0003	85.61
16.0105	85.05
16.0206	86.63
16.0308	86.88
16.0409	86.70
16.0511	87.55
16.0613	87.16
16.0714	87.20
16.0816	87.91
16.0918	87.99
16.1019	88.59
16.1121	88.01
16.1223	87.32
16.1324	87.84
16.1426	90.74
16.1528	89.06
16.1629	88.33
16.1731	89.27
16.1832	90.13
16.1934	89.90
16.2036	89.82
16.2137	90.35
16.2239	89.53
16.2341	90.64
16.2442	92.32
16.2544	91.09
16.2646	92.04
16.2747	91.61
16.2849	91.49
16.2951	92.34
16.3052	92.36
16.3154	94.01
16.3256	92.40
16.3357	92.21
16.3459	93.63
16.356	93.60
16.3662	93.14
16.3764	93.15
16.3865	95.56
16.3967	93.81
16.4069	94.54
16.417	94.04
16.4272	94.84
16.4374	95.36
16.4475	96.86
16.4577	95.09
16.4679	97.13
16.478	97.63
16.4882	97.66
16.4983	97.26
16.5085	98.87
16.5187	98.71
16.5288	96.30
16.539	99.49
16.5492	98.91
16.5593	97.68
16.5695	98.76
16.5797	98.59
16.5898	98.60
16.6	99.56
16.6102	98.93
16.6203	100.78
16.6305	102.32
16.6407	99.77
16.6508	100.84
16.661	102.17
16.6711	100.34
16.6813	101.35
16.6915	99.91
16.7016	102.77
16.7118	100.81
16.722	102.27
16.7321	101.68
16.7423	101.01
16.7525	103.49
16.7626	102.74
16.7728	102.02
16.783	102.44
16.7931	104.07
16.8033	103.62
16.8134	104.30
16.8236	103.80
16.8338	103.13
16.8439	104.06
16.8541	105.35
16.8643	104.66
16.8744	105.02
16.8846	105.68
16.8948	105.47
16.9049	106.49
16.9151	106.51
16.9253	106.95
16.9354	107.31
16.9456	105.57
16.9558	106.84
16.9659	107.32
16.9761	104.99
16.9862	107.32
16.9964	107.70
17.0066	106.80
17.0167	107.05
17.0269	108.63
17.0371	108.64
17.0472	108.23
17.0574	109.26
17.0676	109.51
17.0777	110.52
17.0879	111.07
17.0981	107.59
17.1082	109.54
17.1184	111.29
17.1285	109.87
17.1387	109.88
17.1489	110.24
17.159	109.49
17.1692	111.58
17.1794	112.21
17.1895	111.07
17.1997	111.61
17.2099	112.52
17.22	112.04
17.2302	113.04
17.2404	111.22
17.2505	113.46
17.2607	114.51
17.2709	112.96
17.281	114.71
17.2912	113.52
17.3013	115.51
17.3115	115.94
17.3217	115.32
17.3318	114.48
17.342	116.28
17.3522	116.07
17.3623	115.95
17.3725	114.41
17.3827	115.73
17.3928	118.49
17.403	116.29
17.4132	117.39
17.4233	117.84
17.4335	117.18
17.4436	117.04
17.4538	118.87
17.464	119.55
17.4741	119.80
17.4843	120.80
17.4945	120.73
17.5046	119.96
17.5148	120.59
17.525	120.69
17.5351	121.71
17.5453	122.75
17.5555	122.25
17.5656	121.80
17.5758	124.26
17.5859	123.33
17.5961	124.57
17.6063	125.90
17.6164	125.13
17.6266	126.99
17.6368	127.15
17.6469	126.80
17.6571	125.79
17.6673	127.13
17.6774	127.32
17.6876	128.01
17.6978	128.41
17.7079	127.79
17.7181	129.07
17.7283	130.69
17.7384	130.50
17.7486	130.47
17.7587	131.91
17.7689	130.20
17.7791	132.80
17.7892	134.73
17.7994	134.05
17.8096	134.26
17.8197	135.80
17.8299	137.04
17.8401	136.63
17.8502	138.49
17.8604	140.15
17.8706	139.45
17.8807	139.57
17.8909	141.12
17.901	140.90
17.9112	142.70
17.9214	142.31
17.9315	143.59
17.9417	146.87
17.9519	146.18
17.962	148.29
17.9722	150.65
17.9824	148.48
17.9925	151.31
18.0027	150.66
18.0129	153.52
18.023	154.99
18.0332	155.45
18.0434	157.86
18.0535	157.42
18.0637	160.96
18.0738	160.65
18.084	163.32
18.0942	167.32
18.1043	163.39
18.1145	166.41
18.1247	169.01
18.1348	171.19
18.145	171.49
18.1552	174.68
18.1653	176.54
18.1755	174.65
18.1857	179.72
18.1958	182.57
18.206	182.35
18.2161	186.34
18.2263	186.77
18.2365	185.72
18.2466	192.68
18.2568	194.20
18.267	193.76
18.2771	197.30
18.2873	201.71
18.2975	202.10
18.3076	204.29
18.3178	209.32
18.328	205.65
18.3381	211.84
18.3483	214.70
18.3585	213.51
18.3686	219.82
18.3788	219.47
18.3889	221.38
18.3991	225.99
18.4093	225.86
18.4194	227.24
18.4296	231.53
18.4398	232.85
18.4499	230.35
18.4601	235.86
18.4703	235.82
18.4804	235.69
18.4906	237.76
18.5008	241.31
18.5109	239.36
18.5211	244.74
18.5312	245.26
18.5414	239.86
18.5516	244.51
18.5617	244.13
18.5719	241.97
18.5821	242.77
18.5922	244.23
18.6024	244.35
18.6126	244.55
18.6227	242.10
18.6329	242.98
18.6431	240.43
18.6532	241.59
18.6634	238.99
18.6736	236.15
18.6837	236.82
18.6939	233.01
18.704	230.93
18.7142	229.57
18.7244	227.12
18.7345	227.74
18.7447	225.91
18.7549	222.38
18.765	220.00
18.7752	220.54
18.7854	217.20
18.7955	215.97
18.8057	215.27
18.8159	207.05
18.826	208.42
18.8362	206.82
18.8463	202.90
18.8565	202.33
18.8667	203.54
18.8768	198.07
18.887	195.80
18.8972	195.40
18.9073	190.92
18.9175	190.80
18.9277	189.12
18.9378	185.76
18.948	183.56
18.9582	182.95
18.9683	181.79
18.9785	179.35
18.9887	176.82
18.9988	176.88
19.009	174.65
19.0191	173.60
19.0293	168.96
19.0395	170.29
19.0496	169.20
19.0598	165.35
19.07	167.06
19.0801	164.91
19.0903	164.46
19.1005	160.92
19.1106	162.68
19.1208	160.41
19.131	159.59
19.1411	157.09
19.1513	157.15
19.1614	155.16
19.1716	155.10
19.1818	153.74
19.1919	154.73
19.2021	153.79
19.2123	152.37
19.2224	154.51
19.2326	150.63
19.2428	148.77
19.2529	148.43
19.2631	148.90
19.2733	146.99
19.2834	145.96
19.2936	145.80
19.3038	144.57
19.3139	144.30
19.3241	145.28
19.3342	142.83
19.3444	143.23
19.3546	142.71
19.3647	140.82
19.3749	141.70
19.3851	140.31
19.3952	141.57
19.4054	141.60
19.4156	139.43
19.4257	139.10
19.4359	139.19
19.4461	138.05
19.4562	137.27
19.4664	138.49
19.4765	137.93
19.4867	135.45
19.4969	137.87
19.507	135.66
19.5172	136.47
19.5274	135.28
19.5375	133.18
19.5477	133.87
19.5579	134.48
19.568	135.08
19.5782	134.73
19.5884	133.75
19.5985	132.74
19.6087	132.81
19.6188	134.72
19.629	132.11
19.6392	133.88
19.6493	132.85
19.6595	133.48
19.6697	133.13
19.6798	133.67
19.69	133.35
19.7002	133.10
19.7103	131.15
19.7205	133.32
19.7307	132.59
19.7408	133.14
19.751	132.06
19.7612	131.13
19.7713	132.28
19.7815	132.77
19.7916	131.97
19.8018	131.23
19.812	131.41
19.8221	131.74
19.8323	132.25
19.8425	132.40
19.8526	133.07
19.8628	132.43
19.873	131.11
19.8831	130.52
19.8933	132.28
19.9035	132.24
19.9136	130.19
19.9238	133.05
19.9339	132.02
19.9441	130.50
19.9543	132.29
19.9644	133.26
19.9746	132.20
19.9848	134.38
19.9949	132.99
20.0051	132.86
20.0153	133.40
20.0254	134.35
20.0356	132.70
20.0458	132.33
20.0559	134.04
20.0661	133.23
20.0763	135.90
20.0864	135.24
20.0966	133.65
20.1067	133.27
20.1169	134.35
20.1271	133.44
20.1372	136.15
20.1474	134.34
20.1576	135.37
20.1677	137.04
20.1779	135.29
20.1881	134.32
20.1982	135.51
20.2084	135.38
20.2186	135.54
20.2287	136.29
20.2389	136.62
20.249	136.61
20.2592	136.84
20.2694	137.20
20.2795	136.61
20.2897	137.30
20.2999	137.77
20.31	135.60
20.3202	138.43
20.3304	137.94
20.3405	137.57
20.3507	139.55
20.3609	137.95
20.371	138.11
20.3812	137.12
20.3914	140.06
20.4015	137.90
20.4117	139.63
20.4218	140.35
20.432	140.07
20.4422	140.00
20.4523	139.21
20.4625	138.75
20.4727	137.57
20.4828	138.66
20.493	138.98
20.5032	138.98
20.5133	139.73
20.5235	138.53
20.5337	138.89
20.5438	138.80
20.554	136.76
20.5641	137.16
20.5743	140.04
20.5845	136.78
20.5946	139.46
20.6048	137.35
20.615	137.64
20.6251	138.19
20.6353	136.06
20.6455	135.25
20.6556	136.24
20.6658	135.36
20.676	135.13
20.6861	134.60
20.6963	133.80
20.7065	133.96
20.7166	134.49
20.7268	133.73
20.7369	131.49
20.7471	135.49
20.7573	132.30
20.7674	129.80
20.7776	131.84
20.7878	132.06
20.7979	130.07
20.8081	130.34
20.8183	131.43
20.8284	127.92
20.8386	127.66
20.8488	126.99
20.8589	127.93
20.8691	126.48
20.8792	127.94
20.8894	127.29
20.8996	126.12
20.9097	125.03
20.9199	124.62
20.9301	124.81
20.9402	124.54
20.9504	123.13
20.9606	125.54
20.9707	121.86
20.9809	121.27
20.9911	122.21
21.0012	123.35
21.0114	121.37
21.0216	120.62
21.0317	122.61
21.0419	121.58
21.052	121.13
21.0622	120.80
21.0724	118.52
21.0825	119.61
21.0927	119.59
21.1029	118.62
21.113	118.64
21.1232	119.15
21.1334	118.27
21.1435	116.54
21.1537	118.30
21.1639	116.60
21.174	118.36
21.1842	118.49
21.1943	116.17
21.2045	117.06
21.2147	118.21
21.2248	115.95
21.235	115.77
21.2452	116.12
21.2553	117.01
21.2655	115.74
21.2757	115.61
21.2858	116.49
21.296	115.14
21.3062	116.14
21.3163	114.69
21.3265	118.04
21.3366	116.72
21.3468	115.63
21.357	116.09
21.3671	116.40
21.3773	113.80
21.3875	115.91
21.3976	115.85
21.4078	116.42
21.418	118.35
21.4281	117.98
21.4383	115.69
21.4485	116.65
21.4586	117.29
21.4688	114.51
21.479	118.23
21.4891	118.43
21.4993	117.09
21.5094	117.18
21.5196	117.05
21.5298	117.32
21.5399	117.65
21.5501	118.16
21.5603	118.43
21.5704	119.09
21.5806	120.92
21.5908	119.47
21.6009	118.99
21.6111	119.99
21.6213	120.30
21.6314	120.77
21.6416	122.54
21.6517	121.32
21.6619	124.08
21.6721	122.99
21.6822	121.91
21.6924	124.24
21.7026	125.27
21.7127	124.10
21.7229	126.90
21.7331	127.36
21.7432	127.26
21.7534	128.10
21.7636	128.77
21.7737	128.01
21.7839	130.81
21.7941	132.62
21.8042	129.85
21.8144	133.84
21.8245	133.70
21.8347	132.48
21.8449	135.06
21.855	134.38
21.8652	134.71
21.8754	137.60
21.8855	139.45
21.8957	135.67
21.9059	140.41
21.916	140.34
21.9262	139.82
21.9364	140.73
21.9465	141.87
21.9567	141.12
21.9668	142.39
21.977	143.31
21.9872	142.59
21.9973	145.03
22.0075	144.21
22.0177	144.15
22.0278	144.63
22.038	145.37
22.0482	145.32
22.0583	147.49
22.0685	148.85
22.0787	147.08
22.0888	147.87
22.099	150.45
22.1092	146.52
22.1193	149.38
22.1295	151.15
22.1396	147.91
22.1498	151.57
22.16	151.17
22.1701	151.34
22.1803	152.12
22.1905	151.27
22.2006	151.62
22.2108	152.14
22.221	154.55
22.2311	151.01
22.2413	152.84
22.2515	154.84
22.2616	153.12
22.2718	153.98
22.2819	154.10
22.2921	153.01
22.3023	154.15
22.3124	155.48
22.3226	153.31
22.3328	155.47
22.3429	154.13
22.3531	153.11
22.3633	153.49
22.3734	154.95
22.3836	153.40
22.3938	151.55
22.4039	152.88
22.4141	152.52
22.4243	151.88
22.4344	152.29
22.4446	152.88
22.4547	152.12
22.4649	151.45
22.4751	146.84
22.4852	148.42
22.4954	148.38
22.5056	148.18
22.5157	149.54
22.5259	146.76
22.5361	146.91
22.5462	146.32
22.5564	146.09
22.5666	144.42
22.5767	146.73
22.5869	144.43
22.597	143.90
22.6072	142.70
22.6174	144.02
22.6275	141.76
22.6377	141.67
22.6479	140.05
22.658	137.62
22.6682	139.02
22.6784	137.69
22.6885	136.50
22.6987	137.24
22.7089	136.46
22.719	134.13
22.7292	134.68
22.7394	132.23
22.7495	131.53
22.7597	132.90
22.7698	130.42
22.78	129.63
22.7902	129.06
22.8003	128.43
22.8105	125.51
22.8207	127.18
22.8308	124.49
22.841	124.40
22.8512	123.00
22.8613	123.63
22.8715	121.88
22.8817	123.30
22.8918	122.87
22.902	119.91
22.9121	121.46
22.9223	119.88
22.9325	118.51
22.9426	117.15
22.9528	117.05
22.963	115.40
22.9731	117.09
22.9833	115.97
22.9935	113.97
23.0036	113.68
23.0138	112.96
23.024	109.99
23.0341	111.12
23.0443	111.87
23.0545	108.41
23.0646	110.57
23.0748	109.19
23.0849	108.20
23.0951	108.02
23.1053	106.34
23.1154	105.48
23.1256	106.57
23.1358	105.05
23.1459	103.29
23.1561	105.32
23.1663	103.60
23.1764	102.49
23.1866	102.52
23.1968	101.52
23.2069	101.98
23.2171	100.99
23.2272	100.09
23.2374	98.17
23.2476	97.95
23.2577	98.48
23.2679	97.34
23.2781	97.43
23.2882	95.66
23.2984	95.48
23.3086	95.46
23.3187	94.82
23.3289	96.45
23.3391	94.92
23.3492	94.30
23.3594	93.77
23.3695	92.82
23.3797	92.17
23.3899	91.46
23.4	90.74
23.4102	90.45
23.4204	89.81
23.4305	89.24
23.4407	89.95
23.4509	88.59
23.461	88.59
23.4712	87.93
23.4814	87.93
23.4915	86.99
23.5017	88.13
23.5119	86.16
23.522	85.77
23.5322	86.32
23.5423	84.73
23.5525	85.20
23.5627	84.72
23.5728	84.71
23.583	84.23
23.5932	83.87
23.6033	81.51
23.6135	83.41
23.6237	83.61
23.6338	82.74
23.644	80.38
23.6542	80.63
23.6643	80.79
23.6745	81.96
23.6846	81.48
23.6948	79.16
23.705	79.94
23.7151	78.71
23.7253	79.06
23.7355	79.98
23.7456	78.35
23.7558	78.00
23.766	78.48
23.7761	78.37
23.7863	77.49
23.7965	76.44
23.8066	77.59
23.8168	76.94
23.827	75.35
23.8371	77.71
23.8473	74.69
23.8574	75.60
23.8676	74.41
23.8778	74.09
23.8879	76.05
23.8981	74.18
23.9083	73.37
23.9184	74.34
23.9286	73.23
23.9388	74.23
23.9489	72.62
23.9591	72.15
23.9693	73.53
23.9794	72.88
23.9896	73.36
23.9997	72.46
24.0099	71.87
24.0201	72.28
24.0302	71.65
24.0404	70.70
24.0506	70.74
24.0607	72.15
24.0709	72.67
24.0811	70.43
24.0912	70.54
24.1014	70.26
24.1116	70.04
24.1217	69.16
24.1319	70.11
24.1421	70.78
24.1522	70.03
24.1624	69.11
24.1725	67.60
24.1827	68.25
24.1929	67.74
24.203	69.27
24.2132	68.40
24.2234	68.68
24.2335	67.02
24.2437	67.74
24.2539	67.03
24.264	67.73
24.2742	67.04
24.2844	67.12
24.2945	65.77
24.3047	66.15
24.3148	67.26
24.325	65.91
24.3352	65.62
24.3453	67.48
24.3555	65.71
24.3657	65.18
24.3758	66.12
24.386	65.16
24.3962	65.50
24.4063	64.46
24.4165	65.49
24.4267	63.85
24.4368	65.87
24.447	64.27
24.4572	63.70
24.4673	65.12
24.4775	64.18
24.4876	64.03
24.4978	63.96
24.508	63.84
24.5181	64.37
24.5283	63.34
24.5385	63.57
24.5486	64.50
24.5588	63.49
24.569	63.57
24.5791	64.09
24.5893	63.20
24.5995	63.74
24.6096	63.66
24.6198	62.24
24.6299	62.25
24.6401	63.25
24.6503	62.62
24.6604	63.61
24.6706	61.90
24.6808	62.29
24.6909	62.20
24.7011	61.99
24.7113	62.62
24.7214	61.28
24.7316	60.92
24.7418	61.54
24.7519	61.84
24.7621	62.07
24.7723	60.82
24.7824	61.52
24.7926	61.86
24.8027	60.63
24.8129	61.34
24.8231	60.45
24.8332	61.27
24.8434	60.40
24.8536	60.83
24.8637	60.18
24.8739	60.07
24.8841	59.91
24.8942	60.27
24.9044	59.38
24.9146	60.91
24.9247	59.92
24.9349	61.21
24.945	60.30
24.9552	60.20
24.9654	60.43
24.9755	60.38
24.9857	59.01
24.9959	58.81
25.006	59.10
25.0162	59.74
25.0264	58.82
25.0365	60.15
25.0467	58.89
25.0569	58.25
25.067	58.06
25.0772	59.21
25.0874	59.29
25.0975	59.03
25.1077	57.72
25.1178	59.15
25.128	58.46
25.1382	58.28
25.1483	59.18
25.1585	58.61
25.1687	58.33
25.1788	58.46
25.189	58.18
25.1992	58.66
25.2093	58.98
25.2195	57.51
25.2297	57.92
25.2398	57.57
25.25	57.30
25.2601	57.06
25.2703	58.30
25.2805	56.15
25.2906	56.75
25.3008	57.71
25.311	55.90
25.3211	58.59
25.3313	57.59
25.3415	56.35
25.3516	57.95
25.3618	57.28
25.372	57.10
25.3821	56.24
25.3923	56.54
25.4024	56.73
25.4126	58.01
25.4228	57.38
25.4329	56.24
25.4431	56.44
25.4533	57.17
25.4634	57.02
25.4736	55.76
25.4838	55.28
25.4939	56.35
25.5041	56.68
25.5143	55.79
25.5244	55.69
25.5346	56.09
25.5448	56.24
25.5549	57.65
25.5651	55.39
25.5752	55.81
25.5854	55.97
25.5956	56.27
25.6057	54.79
25.6159	56.63
25.6261	55.37
25.6362	54.57
25.6464	55.67
25.6566	55.72
25.6667	56.02
25.6769	55.43
25.6871	56.47
25.6972	54.66
25.7074	55.21
25.7175	54.47
25.7277	55.59
25.7379	54.78
25.748	55.57
25.7582	55.26
25.7684	54.94
25.7785	55.59
25.7887	55.27
25.7989	54.73
25.809	53.33
25.8192	54.91
25.8294	53.96
25.8395	53.16
25.8497	54.02
25.8599	54.02
25.87	54.40
25.8802	53.16
25.8903	53.87
25.9005	53.31
25.9107	54.52
25.9208	54.18
25.931	53.62
25.9412	53.46
25.9513	52.09
25.9615	52.80
25.9717	53.66
25.9818	52.99
25.992	54.09
26.0022	53.19
26.0123	52.22
26.0225	53.10
26.0326	54.11
26.0428	52.87
26.053	53.31
26.0631	53.14
26.0733	52.87
26.0835	52.66
26.0936	52.96
26.1038	53.34
26.114	53.27
26.1241	51.90
26.1343	53.10
26.1445	53.66
26.1546	52.10
26.1648	52.24
26.175	53.45
26.1851	52.14
26.1953	53.04
26.2054	51.88
26.2156	52.79
26.2258	52.25
26.2359	51.01
26.2461	51.74
26.2563	51.95
26.2664	51.77
26.2766	52.43
26.2868	52.13
26.2969	51.57
26.3071	51.29
26.3173	50.37
26.3274	52.15
26.3376	52.01
26.3477	50.91
26.3579	52.04
26.3681	51.48
26.3782	51.01
26.3884	51.63
26.3986	52.67
26.4087	50.20
26.4189	50.93
26.4291	52.01
26.4392	51.24
26.4494	51.01
26.4596	50.77
26.4697	51.17
26.4799	50.13
26.4901	50.54
26.5002	51.58
26.5104	50.77
26.5205	51.00
26.5307	50.98
26.5409	50.43
26.551	50.43
26.5612	50.87
26.5714	50.40
26.5815	51.37
26.5917	51.57
26.6019	50.38
26.612	50.70
26.6222	50.26
26.6324	51.18
26.6425	50.50
26.6527	50.05
26.6628	49.70
26.673	51.40
26.6832	49.55
26.6933	50.44
26.7035	51.67
26.7137	49.48
26.7238	50.71
26.734	50.67
26.7442	49.39
26.7543	50.46
26.7645	50.27
26.7747	49.63
26.7848	49.86
26.795	49.49
26.8052	50.10
26.8153	49.77
26.8255	49.44
26.8356	51.26
26.8458	48.94
26.856	48.99
26.8661	49.38
26.8763	50.12
26.8865	50.09
26.8966	49.91
26.9068	50.01
26.917	49.71
26.9271	50.08
26.9373	49.92
26.9475	49.37
26.9576	49.77
26.9678	50.40
26.9779	49.47
26.9881	48.74
26.9983	50.06
27.0084	49.59
27.0186	49.29
27.0288	49.87
27.0389	50.18
27.0491	49.45
27.0593	50.32
27.0694	49.62
27.0796	49.48
27.0898	48.68
27.0999	49.65
27.1101	49.97
27.1202	49.05
27.1304	48.94
27.1406	49.60
27.1507	49.91
27.1609	49.82
27.1711	48.60
27.1812	49.62
27.1914	49.91
27.2016	49.23
27.2117	49.66
27.2219	49.87
27.2321	48.67
27.2422	49.98
27.2524	49.98
27.2626	50.46
27.2727	48.86
27.2829	48.97
27.293	49.60
27.3032	49.69
27.3134	49.48
27.3235	49.43
27.3337	49.90
27.3439	50.06
27.354	49.86
27.3642	49.32
27.3744	50.32
27.3845	50.45
27.3947	50.47
27.4049	50.73
27.415	50.07
27.4252	49.95
27.4353	49.52
27.4455	50.68
27.4557	50.87
27.4658	50.01
27.476	50.88
27.4862	51.20
27.4963	49.78
27.5065	50.83
27.5167	51.45
27.5268	50.82
27.537	50.24
27.5472	51.67
27.5573	50.84
27.5675	50.70
27.5777	51.20
27.5878	51.50
27.598	51.26
27.6081	51.54
27.6183	51.04
27.6285	51.95
27.6386	51.79
27.6488	50.71
27.659	52.90
27.6691	51.93
27.6793	52.28
27.6895	52.26
27.6996	53.70
27.7098	51.88
27.72	53.15
27.7301	53.16
27.7403	52.48
27.7504	52.54
27.7606	52.57
27.7708	52.37
27.7809	52.88
27.7911	54.16
27.8013	54.20
27.8114	54.74
27.8216	54.27
27.8318	54.93
27.8419	54.76
27.8521	54.69
27.8623	53.62
27.8724	54.93
27.8826	55.23
27.8928	56.47
27.9029	56.28
27.9131	57.22
27.9232	56.34
27.9334	56.71
27.9436	57.00
27.9537	57.39
27.9639	58.07
27.9741	57.77
27.9842	58.07
27.9944	58.55
28.0046	58.54
28.0147	59.21
28.0249	58.41
28.0351	59.10
28.0452	58.76
28.0554	60.38
28.0655	59.77
28.0757	59.70
28.0859	61.04
28.096	58.92
28.1062	61.07
28.1164	61.41
28.1265	60.49
28.1367	60.91
28.1469	62.55
28.157	62.42
28.1672	61.58
28.1774	61.68
28.1875	61.95
28.1977	62.84
28.2079	63.05
28.218	62.73
28.2282	64.07
28.2383	64.48
28.2485	65.54
28.2587	64.25
28.2688	65.27
28.279	65.88
28.2892	65.03
28.2993	64.21
28.3095	65.04
28.3197	65.89
28.3298	64.35
28.34	64.90
28.3502	65.26
28.3603	64.13
28.3705	64.45
28.3806	65.51
28.3908	64.60
28.401	64.23
28.4111	65.61
28.4213	65.77
28.4315	65.71
28.4416	65.76
28.4518	65.51
28.462	64.26
28.4721	65.19
28.4823	64.59
28.4925	64.34
28.5026	64.57
28.5128	65.38
28.523	64.54
28.5331	64.33
28.5433	63.99
28.5534	62.96
28.5636	63.96
28.5738	64.42
28.5839	63.20
28.5941	62.72
28.6043	62.77
28.6144	63.10
28.6246	63.65
28.6348	64.73
28.6449	63.18
28.6551	62.23
28.6653	62.76
28.6754	62.81
28.6856	62.94
28.6957	62.17
28.7059	60.15
28.7161	61.27
28.7262	60.84
28.7364	59.72
28.7466	59.57
28.7567	60.39
28.7669	59.64
28.7771	59.27
28.7872	59.15
28.7974	57.45
28.8076	58.22
28.8177	59.24
28.8279	58.20
28.8381	58.99
28.8482	56.77
28.8584	56.96
28.8685	56.88
28.8787	57.35
28.8889	57.10
28.899	56.05
28.9092	56.98
28.9194	56.10
28.9295	56.29
28.9397	56.18
28.9499	54.91
28.96	56.25
28.9702	55.13
28.9804	54.66
28.9905	54.37
29.0007	54.22
29.0108	54.48
29.021	54.12
29.0312	54.07
29.0413	54.09
29.0515	52.83
29.0617	52.96
29.0718	53.27
29.082	51.46
29.0922	53.26
29.1023	51.68
29.1125	52.15
29.1227	52.71
29.1328	51.76
29.143	52.36
29.1531	52.21
29.1633	51.13
29.1735	51.14
29.1836	51.29
29.1938	49.98
29.204	50.76
29.2141	50.90
29.2243	50.23
29.2345	49.89
29.2446	49.06
29.2548	50.01
29.265	49.17
29.2751	49.37
29.2853	49.02
29.2955	48.06
29.3056	48.54
29.3158	48.72
29.3259	48.37
29.3361	48.47
29.3463	48.15
29.3564	48.80
29.3666	48.02
29.3768	47.79
29.3869	47.23
29.3971	47.09
29.4073	47.93
29.4174	47.36
29.4276	46.22
29.4378	47.16
29.4479	47.21
29.4581	46.58
29.4682	47.45
29.4784	46.90
29.4886	46.83
29.4987	46.63
29.5089	46.06
29.5191	45.88
29.5292	46.53
29.5394	45.89
29.5496	45.75
29.5597	46.07
29.5699	44.42
29.5801	46.49
29.5902	45.35
29.6004	46.49
29.6106	45.99
29.6207	45.45
29.6309	45.54
29.641	45.05
29.6512	45.20
29.6614	45.74
29.6715	44.66
29.6817	45.10
29.6919	43.82
29.702	44.52
29.7122	43.51
29.7224	44.77
29.7325	45.29
29.7427	44.06
29.7529	44.02
29.763	44.82
29.7732	43.96
29.7833	43.77
29.7935	44.16
29.8037	44.04
29.8138	44.01
29.824	43.77
29.8342	44.66
29.8443	44.10
29.8545	43.38
29.8647	44.57
29.8748	43.39
29.885	43.04
29.8952	42.94
29.9053	44.01
29.9155	43.12
29.9257	43.37
29.9358	43.34
29.946	43.96
29.9561	42.82
29.9663	42.77
29.9765	43.01
29.9866	41.49
29.9968	43.10
30.007	41.77
30.0171	42.50
30.0273	42.54
30.0375	43.84
30.0476	42.21
30.0578	42.28
30.068	41.95
30.0781	41.76
30.0883	40.90
30.0984	42.84
30.1086	42.10
30.1188	41.05
30.1289	41.18
30.1391	42.29
30.1493	41.29
30.1594	40.65
30.1696	41.84
30.1798	41.20
30.1899	41.80
30.2001	40.68
30.2103	41.45
30.2204	41.01
30.2306	41.13
30.2408	41.76
30.2509	41.44
30.2611	40.14
30.2712	39.97
30.2814	41.10
30.2916	39.30
30.3017	39.45
30.3119	39.90
30.3221	39.80
30.3322	39.57
30.3424	40.60
30.3526	38.63
30.3627	40.09
30.3729	39.57
30.3831	38.65
30.3932	39.54
30.4034	39.01
30.4135	39.61
30.4237	39.01
30.4339	39.04
30.444	37.65
30.4542	37.82
30.4644	38.84
30.4745	38.30
30.4847	38.25
30.4949	37.95
30.505	37.34
30.5152	37.90
30.5254	38.02
30.5355	38.43
30.5457	38.60
30.5559	38.43
30.566	36.98
30.5762	38.49
30.5863	37.55
30.5965	38.11
30.6067	37.72
30.6168	38.33
30.627	36.35
30.6372	37.11
30.6473	37.34
30.6575	36.72
30.6677	37.57
30.6778	36.70
30.688	36.24
30.6982	37.03
30.7083	37.02
30.7185	36.26
30.7286	36.18
30.7388	37.51
30.749	36.38
30.7591	36.49
30.7693	36.82
30.7795	35.37
30.7896	35.37
30.7998	36.50
30.81	36.17
30.8201	36.62
30.8303	36.26
30.8405	36.04
30.8506	34.76
30.8608	36.40
30.871	36.16
30.8811	36.18
30.8913	35.22
30.9014	35.07
30.9116	35.00
30.9218	36.21
30.9319	35.75
30.9421	35.63
30.9523	35.48
30.9624	34.51
30.9726	35.79
30.9828	34.93
30.9929	34.64
31.0031	35.92
31.0133	35.51
31.0234	35.13
31.0336	35.04
31.0437	34.45
31.0539	34.49
31.0641	34.35
31.0742	34.52
31.0844	34.71
31.0946	35.18
31.1047	34.59
31.1149	34.73
31.1251	34.66
31.1352	35.16
31.1454	34.97
31.1556	34.80
31.1657	34.60
31.1759	34.82
31.186	34.87
31.1962	33.85
31.2064	34.36
31.2165	34.63
31.2267	34.77
31.2369	34.16
31.247	34.48
31.2572	35.54
31.2674	34.46
31.2775	33.95
31.2877	34.73
31.2979	33.95
31.308	34.34
31.3182	34.40
31.3284	33.51
31.3385	34.43
31.3487	34.29
31.3588	33.52
31.369	34.00
31.3792	33.82
31.3893	33.77
31.3995	34.27
31.4097	34.20
31.4198	34.08
31.43	33.94
31.4402	33.99
31.4503	33.10
31.4605	33.48
31.4707	33.84
31.4808	32.76
31.491	34.02
31.5011	33.64
31.5113	33.49
31.5215	34.09
31.5316	33.55
31.5418	33.44
31.552	32.78
31.5621	33.61
31.5723	32.84
31.5825	33.59
31.5926	34.04
31.6028	33.08
31.613	33.39
31.6231	33.95
31.6333	33.59
31.6435	32.81
31.6536	32.91
31.6638	33.41
31.6739	33.68
31.6841	33.30
31.6943	32.45
31.7044	32.81
31.7146	33.33
31.7248	32.84
31.7349	32.83
31.7451	33.40
31.7553	33.57
31.7654	32.36
31.7756	33.01
31.7858	33.07
31.7959	32.74
31.8061	33.37
31.8162	33.25
31.8264	32.90
31.8366	32.62
31.8467	32.75
31.8569	32.63
31.8671	33.68
31.8772	32.60
31.8874	32.90
31.8976	33.04
31.9077	33.04
31.9179	32.60
31.9281	32.35
31.9382	31.77
31.9484	32.65
31.9586	33.30
31.9687	32.72
31.9789	32.70
31.989	33.22
31.9992	32.33
32.0094	32.69
32.0195	32.30
32.0297	33.10
32.0399	32.80
32.05	33.31
32.0602	32.74
32.0704	32.84
32.0805	33.41
32.0907	32.65
32.1009	33.20
32.111	33.07
32.1212	32.28
32.1313	33.26
32.1415	32.85
32.1517	32.51
32.1618	32.99
32.172	32.59
32.1822	32.41
32.1923	32.60
32.2025	32.71
32.2127	31.27
32.2228	33.27
32.233	32.36
32.2432	32.25
32.2533	32.53
32.2635	32.95
32.2737	32.33
32.2838	31.31
32.294	32.58
32.3041	31.76
32.3143	31.79
32.3245	32.07
32.3346	32.51
32.3448	32.01
32.355	33.24
32.3651	31.67
32.3753	32.27
32.3855	33.03
32.3956	32.45
32.4058	33.18
32.416	33.40
32.4261	32.51
32.4363	33.10
32.4464	33.20
32.4566	33.20
32.4668	32.18
32.4769	31.79
32.4871	32.75
32.4973	32.48
32.5074	32.25
32.5176	31.69
32.5278	32.90
32.5379	31.90
32.5481	31.75
32.5583	32.85
32.5684	32.88
32.5786	32.23
32.5888	32.45
32.5989	32.51
32.6091	32.18
32.6192	32.49
32.6294	32.68
32.6396	31.60
32.6497	32.47
32.6599	33.02
32.6701	32.77
32.6802	31.83
32.6904	32.54
32.7006	31.83
32.7107	32.59
32.7209	32.51
32.7311	32.71
32.7412	32.43
32.7514	32.12
32.7615	32.37
32.7717	32.13
32.7819	31.65
32.792	31.74
32.8022	33.17
32.8124	32.60
32.8225	32.34
32.8327	32.98
32.8429	31.87
32.853	31.82
32.8632	32.35
32.8734	32.32
32.8835	32.13
32.8937	32.84
32.9039	32.45
32.914	32.05
32.9242	32.80
32.9343	32.58
32.9445	32.35
32.9547	31.84
32.9648	31.66
32.975	31.96
32.9852	32.24
32.9953	32.63
33.0055	31.90
33.0157	33.84
33.0258	32.24
33.036	31.79
33.0462	32.26
33.0563	32.68
33.0665	32.93
33.0766	33.02
33.0868	32.80
33.097	32.18
33.1071	32.60
33.1173	32.45
33.1275	32.61
33.1376	32.49
33.1478	32.82
33.158	32.54
33.1681	32.09
33.1783	32.70
33.1885	31.80
33.1986	32.55
33.2088	33.11
33.2189	32.95
33.2291	32.38
33.2393	32.12
33.2494	32.43
33.2596	32.71
33.2698	32.87
33.2799	32.09
33.2901	32.89
33.3003	33.27
33.3104	32.82
33.3206	32.76
33.3308	33.02
33.3409	32.29
33.3511	34.15
33.3613	32.77
33.3714	32.10
33.3816	31.98
33.3917	32.34
33.4019	32.66
33.4121	32.73
33.4222	32.02
33.4324	32.60
33.4426	33.35
33.4527	32.38
33.4629	32.27
33.4731	32.18
33.4832	31.58
33.4934	32.45
33.5036	31.91
33.5137	33.15
33.5239	31.71
33.534	31.95
33.5442	32.48
33.5544	30.66
33.5645	31.59
33.5747	31.87
33.5849	31.99
33.595	31.70
33.6052	31.51
33.6154	31.49
33.6255	32.04
33.6357	30.71
33.6459	31.13
33.656	31.25
33.6662	31.31
33.6764	31.70
33.6865	30.92
33.6967	31.12
33.7068	30.94
33.717	31.34
33.7272	30.85
33.7373	28.79
33.7475	30.97
33.7577	30.43
33.7678	30.04
33.778	30.70
33.7882	29.52
33.7983	29.59
33.8085	30.41
33.8187	30.22
33.8288	30.10
33.839	30.16
33.8491	29.71
33.8593	29.49
33.8695	29.42
33.8796	29.31
33.8898	29.07
33.9	29.15
33.9101	28.91
33.9203	29.32
33.9305	28.84
33.9406	29.54
33.9508	28.44
33.961	28.74
33.9711	29.06
33.9813	28.90
33.9915	28.65
34.0016	28.62
34.0118	28.60
34.0219	28.61
34.0321	29.12
34.0423	28.43
34.0524	28.37
34.0626	28.50
34.0728	28.98
34.0829	28.00
34.0931	28.94
34.1033	27.64
34.1134	28.24
34.1236	28.52
34.1338	27.97
34.1439	28.62
34.1541	27.71
34.1642	27.85
34.1744	28.10
34.1846	27.59
34.1947	26.90
34.2049	27.04
34.2151	27.85
34.2252	27.40
34.2354	28.05
34.2456	27.44
34.2557	27.47
34.2659	27.38
34.2761	27.95
34.2862	27.15
34.2964	27.34
34.3066	27.51
34.3167	27.35
34.3269	27.66
34.337	27.37
34.3472	27.22
34.3574	27.35
34.3675	27.33
34.3777	26.89
34.3879	27.38
34.398	27.43
34.4082	27.45
34.4184	26.43
34.4285	26.30
34.4387	26.73
34.4489	26.78
34.459	27.84
34.4692	26.67
34.4793	27.31
34.4895	26.22
34.4997	26.21
34.5098	27.99
34.52	26.83
34.5302	26.98
34.5403	26.89
34.5505	26.51
34.5607	26.37
34.5708	26.08
34.581	26.76
34.5912	27.24
34.6013	26.32
34.6115	25.93
34.6217	27.23
34.6318	26.44
34.642	26.94
34.6521	26.80
34.6623	25.91
34.6725	26.34
34.6826	26.10
34.6928	26.02
34.703	26.10
34.7131	26.81
34.7233	26.52
34.7335	26.67
34.7436	26.84
34.7538	26.30
34.764	26.40
34.7741	26.32
34.7843	26.38
34.7944	26.47
34.8046	26.54
34.8148	26.04
34.8249	25.77
34.8351	26.29
34.8453	26.22
34.8554	26.31
34.8656	26.28
34.8758	25.73
34.8859	26.09
34.8961	26.10
34.9063	26.38
34.9164	26.87
34.9266	25.48
34.9367	25.95
34.9469	26.52
34.9571	26.40
34.9672	26.34
34.9774	25.80
34.9876	26.40
34.9977	26.15
35.0079	25.19
35.0181	25.64
35.0282	25.80
35.0384	25.99
35.0486	26.05
35.0587	26.10
35.0689	26.05
35.0791	25.16
35.0892	25.52
35.0994	25.84
35.1095	26.22
35.1197	26.07
35.1299	25.22
35.14	25.82
35.1502	25.55
35.1604	25.68
35.1705	26.04
35.1807	25.95
35.1909	25.69
35.201	25.34
35.2112	25.26
35.2214	25.34
35.2315	25.51
35.2417	25.89
35.2518	24.88
35.262	25.07
35.2722	25.68
35.2823	24.95
35.2925	25.54
35.3027	26.43
35.3128	25.09
35.323	24.85
35.3332	25.51
35.3433	25.87
35.3535	26.02
35.3637	25.87
35.3738	25.90
35.384	25.23
35.3942	25.16
35.4043	24.91
35.4145	25.05
35.4246	24.84
35.4348	25.44
35.445	26.05
35.4551	25.58
35.4653	24.86
35.4755	25.78
35.4856	24.32
35.4958	25.47
35.506	25.10
35.5161	25.52
35.5263	25.51
35.5365	25.24
35.5466	25.04
35.5568	25.13
35.5669	24.76
35.5771	25.55
35.5873	25.56
35.5974	24.57
35.6076	24.26
35.6178	25.01
35.6279	25.24
35.6381	24.82
35.6483	24.84
35.6584	24.91
35.6686	25.80
35.6788	25.32
35.6889	25.45
35.6991	24.70
35.7093	25.28
35.7194	25.17
35.7296	25.05
35.7397	25.35
35.7499	24.95
35.7601	25.67
35.7702	25.46
35.7804	24.35
35.7906	24.98
35.8007	24.20
35.8109	24.71
35.8211	24.99
35.8312	24.86
35.8414	24.09
35.8516	25.20
35.8617	25.63
35.8719	25.03
35.882	24.91
35.8922	24.87
35.9024	24.99
35.9125	24.74
35.9227	24.40
35.9329	24.49
35.943	24.71
35.9532	25.55
35.9634	25.02
35.9735	25.09
35.9837	24.68
35.9939	24.55
36.004	24.93
36.0142	24.63
36.0244	24.70
36.0345	25.52
36.0447	24.93
36.0548	25.01
36.065	25.32
36.0752	24.55
36.0853	25.27
36.0955	24.71
36.1057	25.15
36.1158	25.04
36.126	24.96
36.1362	24.61
36.1463	25.21
36.1565	25.33
36.1667	24.51
36.1768	24.63
36.187	25.20
36.1971	25.08
36.2073	25.13
36.2175	24.20
36.2276	23.91
36.2378	24.70
36.248	24.87
36.2581	24.17
36.2683	25.23
36.2785	24.53
36.2886	24.62
36.2988	25.10
36.309	25.27
36.3191	24.99
36.3293	24.87
36.3395	24.27
36.3496	24.99
36.3598	24.87
36.3699	24.76
36.3801	24.16
36.3903	25.15
36.4004	25.26
36.4106	25.19
36.4208	25.03
36.4309	25.14
36.4411	24.98
36.4513	25.29
36.4614	25.13
36.4716	24.25
36.4818	25.35
36.4919	24.91
36.5021	25.45
36.5122	24.88
36.5224	24.51
36.5326	25.45
36.5427	24.85
36.5529	25.05
36.5631	24.93
36.5732	25.70
36.5834	24.68
36.5936	25.46
36.6037	25.02
36.6139	25.09
36.6241	25.41
36.6342	25.74
36.6444	25.27
36.6546	25.15
36.6647	25.66
36.6749	25.17
36.685	25.25
36.6952	25.92
36.7054	25.37
36.7155	25.10
36.7257	25.73
36.7359	25.10
36.746	25.34
36.7562	24.86
36.7664	25.55
36.7765	25.35
36.7867	25.62
36.7969	25.34
36.807	25.25
36.8172	25.33
36.8273	24.61
36.8375	26.12
36.8477	25.32
36.8578	25.12
36.868	26.01
36.8782	25.09
36.8883	25.39
36.8985	25.57
36.9087	25.62
36.9188	25.27
36.929	25.63
36.9392	25.27
36.9493	26.35
36.9595	25.18
36.9696	25.81
36.9798	26.21
36.99	25.41
37.0001	25.52
37.0103	25.48
37.0205	25.40
37.0306	25.99
37.0408	26.24
37.051	25.35
37.0611	26.15
37.0713	25.48
37.0815	26.17
37.0916	25.03
37.1018	26.32
37.112	26.60
37.1221	25.07
37.1323	26.20
37.1424	25.57
37.1526	26.14
37.1628	25.41
37.1729	25.42
37.1831	25.82
37.1933	25.95
37.2034	26.04
37.2136	26.09
37.2238	26.59
37.2339	26.30
37.2441	26.12
37.2543	25.71
37.2644	25.86
37.2746	26.59
37.2847	26.05
37.2949	26.99
37.3051	25.95
37.3152	26.28
37.3254	26.37
37.3356	25.94
37.3457	26.16
37.3559	26.18
37.3661	26.29
37.3762	26.56
37.3864	26.74
37.3966	25.93
37.4067	26.33
37.4169	26.52
37.4271	26.16
37.4372	27.18
37.4474	26.29
37.4575	26.43
37.4677	27.16
37.4779	26.39
37.488	27.04
37.4982	26.21
37.5084	26.32
37.5185	26.82
37.5287	26.66
37.5389	26.77
37.549	26.48
37.5592	26.55
37.5694	27.11
37.5795	27.40
37.5897	27.28
37.5998	27.35
37.61	27.58
37.6202	26.62
37.6303	27.04
37.6405	27.03
37.6507	27.15
37.6608	27.15
37.671	27.03
37.6812	27.26
37.6913	27.02
37.7015	27.28
37.7117	27.70
37.7218	27.46
37.732	27.59
37.7422	27.54
37.7523	27.97
37.7625	27.79
37.7726	27.55
37.7828	28.01
37.793	28.46
37.8031	28.24
37.8133	27.62
37.8235	26.64
37.8336	28.21
37.8438	27.66
37.854	27.57
37.8641	28.02
37.8743	27.86
37.8845	28.36
37.8946	28.66
37.9048	28.09
37.9149	28.46
37.9251	28.04
37.9353	28.43
37.9454	28.17
37.9556	28.63
37.9658	28.39
37.9759	28.40
37.9861	28.15
37.9963	28.59
38.0064	28.68
38.0166	28.51
38.0268	28.35
38.0369	28.19
38.0471	28.23
38.0573	28.63
38.0674	28.85
38.0776	28.95
38.0877	28.82
38.0979	29.52
38.1081	28.64
38.1182	28.82
38.1284	28.96
38.1386	29.38
38.1487	28.61
38.1589	29.66
38.1691	28.73
38.1792	29.10
38.1894	29.59
38.1996	28.92
38.2097	28.95
38.2199	28.91
38.23	28.79
38.2402	29.30
38.2504	30.00
38.2605	30.07
38.2707	29.27
38.2809	29.02
38.291	28.65
38.3012	28.88
38.3114	29.27
38.3215	29.29
38.3317	28.76
38.3419	29.47
38.352	29.84
38.3622	29.75
38.3724	29.37
38.3825	29.79
38.3927	29.93
38.4028	28.80
38.413	28.58
38.4232	28.70
38.4333	28.98
38.4435	28.85
38.4537	29.61
38.4638	29.47
38.474	29.03
38.4842	30.04
38.4943	29.47
38.5045	28.99
38.5147	29.61
38.5248	28.98
38.535	29.85
38.5451	29.09
38.5553	29.21
38.5655	28.64
38.5756	29.02
38.5858	30.43
38.596	29.12
38.6061	29.76
38.6163	29.02
38.6265	29.01
38.6366	29.64
38.6468	29.99
38.657	29.09
38.6671	29.31
38.6773	28.62
38.6875	28.66
38.6976	29.05
38.7078	29.34
38.7179	28.79
38.7281	29.11
38.7383	29.07
38.7484	29.19
38.7586	29.01
38.7688	29.27
38.7789	28.95
38.7891	29.43
38.7993	29.21
38.8094	28.88
38.8196	29.20
38.8298	28.85
38.8399	28.98
38.8501	29.07
38.8602	29.82
38.8704	29.53
38.8806	28.92
38.8907	29.18
38.9009	28.35
38.9111	29.10
38.9212	29.04
38.9314	28.17
38.9416	28.33
38.9517	28.39
38.9619	28.46
38.9721	28.09
38.9822	28.65
38.9924	28.21
39.0025	28.11
39.0127	27.88
39.0229	28.04
39.033	27.80
39.0432	28.33
39.0534	28.41
39.0635	28.29
39.0737	28.30
39.0839	28.77
39.094	28.10
39.1042	27.52
39.1144	28.35
39.1245	28.40
39.1347	28.29
39.1449	28.21
39.155	27.99
39.1652	27.80
39.1753	27.52
39.1855	28.12
39.1957	27.83
39.2058	27.66
39.216	28.11
39.2262	28.52
39.2363	27.59
39.2465	27.11
39.2567	27.31
39.2668	27.13
39.277	26.79
39.2872	26.84
39.2973	27.21
39.3075	27.05
39.3176	27.16
39.3278	26.76
39.338	27.49
39.3481	27.59
39.3583	26.94
39.3685	26.74
39.3786	27.02
39.3888	27.20
39.399	26.92
39.4091	26.44
39.4193	27.48
39.4295	26.65
39.4396	26.23
39.4498	26.60
39.46	26.25
39.4701	26.60
39.4803	26.13
39.4904	26.55
39.5006	26.60
39.5108	26.86
39.5209	25.90
39.5311	25.60
39.5413	26.60
39.5514	25.65
39.5616	26.26
39.5718	27.18
39.5819	25.79
39.5921	26.86
39.6023	25.97
39.6124	25.96
39.6226	26.88
39.6327	27.02
39.6429	26.18
39.6531	25.90
39.6632	25.84
39.6734	26.53
39.6836	26.34
39.6937	25.80
39.7039	26.26
39.7141	26.49
39.7242	26.54
39.7344	26.26
39.7446	26.09
39.7547	25.09
39.7649	25.09
39.7751	25.73
39.7852	25.40
39.7954	26.02
39.8055	25.54
39.8157	25.43
39.8259	25.89
39.836	25.77
39.8462	26.10
39.8564	25.96
39.8665	25.34
39.8767	25.42
39.8869	25.52
39.897	25.79
39.9072	25.12
39.9174	25.27
39.9275	25.17
39.9377	25.00
39.9478	25.34
39.958	25.13
39.9682	25.26
39.9783	24.96
39.9885	25.73
39.9987	25.59
40.0088	25.29
