5.0023	55.56
5.0125	55.89
5.0226	54.33
5.0328	52.57
5.043	52.13
5.0531	52.10
5.0633	51.08
5.0735	50.15
5.0836	49.39
5.0938	48.52
5.1039	47.06
5.1141	48.09
5.1243	45.99
5.1344	45.65
5.1446	43.84
5.1548	43.39
5.1649	44.04
5.1751	43.69
5.1853	42.03
5.1954	41.34
5.2056	41.45
5.2158	39.67
5.2259	39.35
5.2361	38.87
5.2462	38.63
5.2564	37.05
5.2666	37.80
5.2767	36.60
5.2869	36.62
5.2971	35.77
5.3072	36.62
5.3174	35.15
5.3276	35.16
5.3377	33.57
5.3479	33.31
5.3581	33.60
5.3682	33.43
5.3784	33.36
5.3886	32.04
5.3987	31.35
5.4089	32.21
5.419	32.10
5.4292	30.04
5.4394	30.37
5.4495	30.96
5.4597	29.29
5.4699	28.82
5.48	29.26
5.4902	28.62
5.5004	28.53
5.5105	28.52
5.5207	28.74
5.5309	27.79
5.541	27.80
5.5512	27.35
5.5613	27.53
5.5715	26.74
5.5817	26.09
5.5918	26.19
5.602	26.01
5.6122	25.12
5.6223	26.17
5.6325	25.79
5.6427	25.34
5.6528	24.30
5.663	25.23
5.6732	24.21
5.6833	24.65
5.6935	24.63
5.7036	23.36
5.7138	23.73
5.724	23.74
5.7341	23.23
5.7443	22.93
5.7545	22.74
5.7646	23.07
5.7748	22.87
5.785	22.27
5.7951	21.74
5.8053	22.28
5.8155	22.78
5.8256	22.85
5.8358	22.29
5.846	22.21
5.8561	22.63
5.8663	22.48
5.8764	22.71
5.8866	22.07
5.8968	21.65
5.9069	22.17
5.9171	21.73
5.9273	21.82
5.9374	22.41
5.9476	21.58
5.9578	21.51
5.9679	21.71
5.9781	21.27
5.9883	21.31
5.9984	21.45
6.0086	21.43
6.0187	21.21
6.0289	20.90
6.0391	21.38
6.0492	20.75
6.0594	21.27
6.0696	21.48
6.0797	21.33
6.0899	20.87
6.1001	21.26
6.1102	20.88
6.1204	21.79
6.1306	21.07
6.1407	20.57
6.1509	21.24
6.1611	21.07
6.1712	20.73
6.1814	20.27
6.1915	20.98
6.2017	20.35
6.2119	20.54
6.222	20.77
6.2322	20.90
6.2424	20.30
6.2525	20.74
6.2627	20.38
6.2729	20.59
6.283	20.49
6.2932	20.24
6.3034	20.97
6.3135	20.55
6.3237	20.46
6.3338	20.75
6.344	20.83
6.3542	20.77
6.3643	20.00
6.3745	20.24
6.3847	20.15
6.3948	20.09
6.405	19.77
6.4152	19.82
6.4253	20.35
6.4355	20.16
6.4457	20.63
6.4558	20.85
6.466	20.16
6.4762	20.45
6.4863	19.65
6.4965	19.70
6.5066	20.48
6.5168	19.70
6.527	20.46
6.5371	20.62
6.5473	19.85
6.5575	20.11
6.5676	20.18
6.5778	20.79
6.588	20.58
6.5981	20.50
6.6083	20.72
6.6185	20.69
6.6286	20.32
6.6388	20.70
6.6489	20.26
6.6591	20.68
6.6693	20.27
6.6794	20.20
6.6896	20.78
6.6998	19.52
6.7099	20.86
6.7201	20.26
6.7303	19.84
6.7404	20.06
6.7506	20.55
6.7608	20.61
6.7709	20.01
6.7811	20.93
6.7913	20.40
6.8014	20.37
6.8116	20.47
6.8217	21.04
6.8319	20.98
6.8421	20.45
6.8522	20.32
6.8624	21.52
6.8726	20.51
6.8827	20.66
6.8929	20.40
6.9031	21.44
6.9132	20.83
6.9234	21.24
6.9336	20.87
6.9437	20.69
6.9539	20.54
6.964	20.54
6.9742	20.62
6.9844	20.05
6.9945	21.17
7.0047	21.46
7.0149	21.57
7.025	20.04
7.0352	21.11
7.0454	20.49
7.0555	20.27
7.0657	21.18
7.0759	21.49
7.086	21.00
7.0962	20.60
7.1064	21.12
7.1165	21.41
7.1267	21.15
7.1368	21.21
7.147	20.24
7.1572	20.90
7.1673	21.04
7.1775	20.55
7.1877	20.88
7.1978	21.14
7.208	20.09
7.2182	21.19
7.2283	22.31
7.2385	20.20
7.2487	21.12
7.2588	21.07
7.269	21.20
7.2791	21.16
7.2893	21.88
7.2995	20.68
7.3096	20.76
7.3198	21.31
7.33	21.79
7.3401	21.03
7.3503	21.41
7.3605	21.30
7.3706	21.80
7.3808	22.07
7.391	21.46
7.4011	21.49
7.4113	21.70
7.4215	21.28
7.4316	21.38
7.4418	21.63
7.4519	21.77
7.4621	21.63
7.4723	21.30
7.4824	22.10
7.4926	21.85
7.5028	21.55
7.5129	21.81
7.5231	21.40
7.5333	21.12
7.5434	22.20
7.5536	21.63
7.5638	22.36
7.5739	22.37
7.5841	21.48
7.5942	22.00
7.6044	22.40
7.6146	22.17
7.6247	22.09
7.6349	21.99
7.6451	22.58
7.6552	22.58
7.6654	21.62
7.6756	22.07
7.6857	22.17
7.6959	21.89
7.7061	22.46
7.7162	22.99
7.7264	21.86
7.7365	22.22
7.7467	22.46
7.7569	20.98
7.767	22.62
7.7772	22.96
7.7874	21.55
7.7975	23.54
7.8077	22.93
7.8179	21.80
7.828	22.10
7.8382	22.43
7.8484	21.96
7.8585	22.22
7.8687	22.24
7.8789	22.77
7.889	22.46
7.8992	22.70
7.9093	22.97
7.9195	22.55
7.9297	22.80
7.9398	22.15
7.95	23.04
7.9602	23.09
7.9703	23.46
7.9805	22.63
7.9907	22.91
8.0008	22.86
8.011	22.98
8.0212	23.02
8.0313	22.35
8.0415	22.69
8.0516	23.07
8.0618	23.30
8.072	22.43
8.0821	23.34
8.0923	23.02
8.1025	22.66
8.1126	23.15
8.1228	23.92
8.133	22.87
8.1431	23.21
8.1533	22.85
8.1635	23.50
8.1736	23.45
8.1838	23.82
8.194	22.66
8.2041	24.24
8.2143	24.01
8.2244	23.20
8.2346	23.41
8.2448	23.67
8.2549	23.71
8.2651	23.23
8.2753	23.57
8.2854	24.33
8.2956	24.02
8.3058	23.29
8.3159	24.13
8.3261	23.97
8.3363	22.73
8.3464	24.18
8.3566	23.85
8.3667	23.49
8.3769	23.84
8.3871	24.18
8.3972	23.27
8.4074	24.20
8.4176	23.80
8.4277	24.02
8.4379	24.29
8.4481	23.99
8.4582	24.45
8.4684	25.30
8.4786	24.09
8.4887	23.49
8.4989	24.46
8.5091	23.80
8.5192	24.67
8.5294	24.85
8.5395	24.12
8.5497	24.93
8.5599	24.94
8.57	25.29
8.5802	24.53
8.5904	24.05
8.6005	24.66
8.6107	24.95
8.6209	24.38
8.631	25.18
8.6412	24.43
8.6514	24.37
8.6615	24.60
8.6717	24.45
8.6818	25.28
8.692	24.98
8.7022	24.84
8.7123	25.39
8.7225	24.92
8.7327	24.57
8.7428	25.69
8.753	25.14
8.7632	25.05
8.7733	25.02
8.7835	25.72
8.7937	25.11
8.8038	25.73
8.814	25.23
8.8242	25.03
8.8343	25.95
8.8445	26.33
8.8546	25.51
8.8648	25.72
8.875	25.96
8.8851	25.68
8.8953	25.95
8.9055	25.13
8.9156	25.41
8.9258	25.54
8.936	25.32
8.9461	25.74
8.9563	26.46
8.9665	25.57
8.9766	26.10
8.9868	25.97
8.9969	26.23
9.0071	25.57
9.0173	26.15
9.0274	26.14
9.0376	25.92
9.0478	26.71
9.0579	27.16
9.0681	26.41
9.0783	26.74
9.0884	26.73
9.0986	26.13
9.1088	26.06
9.1189	26.71
9.1291	26.31
9.1393	26.67
9.1494	26.77
9.1596	25.77
9.1697	26.62
9.1799	27.04
9.1901	26.77
9.2002	25.83
9.2104	26.98
9.2206	26.45
9.2307	26.67
9.2409	26.04
9.2511	26.15
9.2612	27.74
9.2714	27.78
9.2816	26.76
9.2917	27.25
9.3019	27.10
9.312	27.23
9.3222	28.32
9.3324	26.76
9.3425	27.41
9.3527	27.15
9.3629	26.62
9.373	26.81
9.3832	27.17
9.3934	27.22
9.4035	27.26
9.4137	27.03
9.4239	27.30
9.434	27.24
9.4442	27.05
9.4544	26.98
9.4645	27.04
9.4747	28.19
9.4848	27.85
9.495	27.78
9.5052	27.91
9.5153	27.21
9.5255	28.05
9.5357	28.17
9.5458	28.54
9.556	26.54
9.5662	27.24
9.5763	27.99
9.5865	28.57
9.5967	27.38
9.6068	27.96
9.617	28.18
9.6271	28.91
9.6373	28.48
9.6475	27.14
9.6576	29.18
9.6678	28.80
9.678	27.58
9.6881	28.90
9.6983	29.28
9.7085	28.60
9.7186	28.21
9.7288	27.98
9.739	27.88
9.7491	29.15
9.7593	28.13
9.7694	28.91
9.7796	28.00
9.7898	29.23
9.7999	28.59
9.8101	28.91
9.8203	29.55
9.8304	28.34
9.8406	29.07
9.8508	28.55
9.8609	28.87
9.8711	28.93
9.8813	28.71
9.8914	28.74
9.9016	28.72
9.9118	29.47
9.9219	29.40
9.9321	29.64
9.9422	29.90
9.9524	28.91
9.9626	29.01
9.9727	29.56
9.9829	29.29
9.9931	29.63
10.0032	29.76
10.0134	29.96
10.0236	30.29
10.0337	29.54
10.0439	28.79
10.0541	28.95
10.0642	29.77
10.0744	29.48
10.0845	29.44
10.0947	29.48
10.1049	30.07
10.115	30.55
10.1252	30.12
10.1354	28.99
10.1455	29.62
10.1557	29.55
10.1659	29.81
10.176	30.56
10.1862	31.09
10.1964	29.93
10.2065	30.27
10.2167	30.24
10.2269	30.09
10.237	30.40
10.2472	31.04
10.2573	30.93
10.2675	29.71
10.2777	30.75
10.2878	30.71
10.298	30.84
10.3082	30.98
10.3183	30.35
10.3285	31.49
10.3387	30.26
10.3488	30.73
10.359	31.29
10.3692	30.42
10.3793	29.93
10.3895	30.86
10.3996	30.62
10.4098	30.98
10.42	30.65
10.4301	31.19
10.4403	31.77
10.4505	31.10
10.4606	31.24
10.4708	31.32
10.481	31.63
10.4911	30.98
10.5013	30.89
10.5115	32.30
10.5216	31.32
10.5318	31.68
10.542	31.32
10.5521	30.95
10.5623	31.33
10.5724	31.79
10.5826	31.83
10.5928	32.04
10.6029	32.38
10.6131	31.38
10.6233	32.38
10.6334	31.45
10.6436	32.14
10.6538	31.95
10.6639	31.47
10.6741	31.45
10.6843	31.97
10.6944	32.29
10.7046	32.77
10.7147	32.32
10.7249	31.91
10.7351	31.82
10.7452	32.22
10.7554	32.50
10.7656	31.98
10.7757	32.97
10.7859	32.55
10.7961	32.67
10.8062	32.34
10.8164	32.71
10.8266	31.83
10.8367	32.42
10.8469	32.74
10.8571	32.30
10.8672	33.50
10.8774	32.56
10.8875	33.02
10.8977	32.97
10.9079	32.82
10.918	33.71
10.9282	32.59
10.9384	32.88
10.9485	33.42
10.9587	33.74
10.9689	33.98
10.979	32.98
10.9892	33.31
10.9994	33.43
11.0095	33.32
11.0197	34.07
11.0298	32.82
11.04	33.40
11.0502	33.96
11.0603	32.76
11.0705	33.95
11.0807	34.30
11.0908	32.91
11.101	34.58
11.1112	33.81
11.1213	34.10
11.1315	34.43
11.1417	33.80
11.1518	33.96
11.162	35.07
11.1722	34.37
11.1823	34.18
11.1925	34.91
11.2026	34.15
11.2128	34.69
11.223	34.10
11.2331	33.92
11.2433	34.20
11.2535	35.03
11.2636	34.12
11.2738	34.46
11.284	34.45
11.2941	35.25
11.3043	35.48
11.3145	34.86
11.3246	34.88
11.3348	34.48
11.3449	34.06
11.3551	35.77
11.3653	35.91
11.3754	35.18
11.3856	36.01
11.3958	35.58
11.4059	35.90
11.4161	35.29
11.4263	34.93
11.4364	36.10
11.4466	35.50
11.4568	34.99
11.4669	35.13
11.4771	35.38
11.4873	35.73
11.4974	36.32
11.5076	35.88
11.5177	35.24
11.5279	35.76
11.5381	37.09
11.5482	35.73
11.5584	35.21
11.5686	35.80
11.5787	37.02
11.5889	36.41
11.5991	36.32
11.6092	36.37
11.6194	35.84
11.6296	36.01
11.6397	36.41
11.6499	36.40
11.66	37.21
11.6702	36.91
11.6804	37.37
11.6905	36.07
11.7007	36.46
11.7109	36.82
11.721	38.03
11.7312	37.73
11.7414	37.29
11.7515	37.04
11.7617	38.21
11.7719	38.18
11.782	37.05
11.7922	39.05
11.8023	37.43
11.8125	38.34
11.8227	38.00
11.8328	36.98
11.843	37.60
11.8532	37.35
11.8633	38.17
11.8735	37.24
11.8837	38.66
11.8938	37.74
11.904	38.01
11.9142	38.14
11.9243	38.04
11.9345	37.39
11.9447	37.60
11.9548	38.51
11.965	38.81
11.9751	37.40
11.9853	38.15
11.9955	38.87
12.0056	38.03
12.0158	38.57
12.026	38.36
12.0361	38.38
12.0463	38.99
12.0565	39.79
12.0666	38.73
12.0768	39.13
12.087	39.30
12.0971	39.13
12.1073	39.32
12.1174	38.87
12.1276	39.48
12.1378	38.24
12.1479	39.34
12.1581	39.97
12.1683	39.95
12.1784	40.30
12.1886	39.88
12.1988	40.48
12.2089	39.74
12.2191	40.34
12.2293	40.67
12.2394	40.66
12.2496	40.76
12.2598	40.34
12.2699	41.18
12.2801	41.33
12.2902	40.23
12.3004	39.77
12.3106	40.90
12.3207	40.99
12.3309	40.91
12.3411	41.66
12.3512	40.12
12.3614	42.08
12.3716	41.43
12.3817	40.30
12.3919	41.95
12.4021	41.18
12.4122	41.41
12.4224	41.96
12.4325	40.81
12.4427	41.47
12.4529	42.27
12.463	41.96
12.4732	41.38
12.4834	41.76
12.4935	41.94
12.5037	41.88
12.5139	42.32
12.524	41.23
12.5342	41.42
12.5444	42.59
12.5545	42.30
12.5647	43.42
12.5749	42.85
12.585	42.89
12.5952	42.44
12.6053	42.61
12.6155	42.49
12.6257	41.84
12.6358	42.47
12.646	43.85
12.6562	42.38
12.6663	43.35
12.6765	42.75
12.6867	43.15
12.6968	44.29
12.707	43.17
12.7172	43.01
12.7273	42.71
12.7375	43.38
12.7476	43.90
12.7578	42.77
12.768	44.12
12.7781	43.46
12.7883	44.03
12.7985	44.04
12.8086	44.07
12.8188	43.30
12.829	45.44
12.8391	45.16
12.8493	45.09
12.8595	44.68
12.8696	44.16
12.8798	45.12
12.89	44.52
12.9001	44.66
12.9103	45.12
12.9204	45.14
12.9306	44.87
12.9408	45.65
12.9509	45.49
12.9611	46.15
12.9713	45.88
12.9814	45.64
12.9916	45.63
13.0018	45.63
13.0119	46.88
13.0221	46.12
13.0323	46.10
13.0424	46.54
13.0526	46.26
13.0627	46.47
13.0729	47.04
13.0831	46.66
13.0932	45.12
13.1034	47.11
13.1136	47.13
13.1237	47.29
13.1339	47.41
13.1441	47.19
13.1542	45.46
13.1644	46.93
13.1746	47.75
13.1847	47.00
13.1949	47.87
13.2051	48.40
13.2152	47.76
13.2254	48.15
13.2355	47.27
13.2457	49.08
13.2559	47.37
13.266	48.54
13.2762	49.23
13.2864	47.77
13.2965	48.38
13.3067	47.55
13.3169	48.60
13.327	49.68
13.3372	47.66
13.3474	49.20
13.3575	49.99
13.3677	48.18
13.3778	50.07
13.388	49.76
13.3982	49.84
13.4083	49.60
13.4185	49.49
13.4287	50.36
13.4388	50.38
13.449	49.26
13.4592	50.32
13.4693	50.57
13.4795	50.71
13.4897	50.85
13.4998	51.41
13.51	50.48
13.5201	50.80
13.5303	51.06
13.5405	50.92
13.5506	51.10
13.5608	50.59
13.571	52.30
13.5811	51.41
13.5913	50.91
13.6015	51.89
13.6116	51.45
13.6218	52.00
13.632	51.31
13.6421	52.63
13.6523	52.20
13.6625	52.52
13.6726	52.34
13.6828	53.20
13.6929	52.12
13.7031	52.49
13.7133	53.14
13.7234	51.91
13.7336	53.04
13.7438	53.15
13.7539	53.16
13.7641	53.20
13.7743	54.19
13.7844	53.45
13.7946	54.07
13.8048	54.43
13.8149	52.96
13.8251	54.50
13.8352	54.67
13.8454	53.91
13.8556	55.40
13.8657	54.72
13.8759	55.06
13.8861	54.83
13.8962	55.10
13.9064	55.09
13.9166	53.99
13.9267	56.34
13.9369	54.73
13.9471	55.95
13.9572	55.71
13.9674	55.59
13.9776	55.48
13.9877	56.26
13.9979	54.70
14.008	56.29
14.0182	56.05
14.0284	56.39
14.0385	55.52
14.0487	57.49
14.0589	57.12
14.069	56.71
14.0792	56.11
14.0894	57.02
14.0995	56.35
14.1097	57.10
14.1199	57.34
14.13	57.96
14.1402	58.80
14.1503	57.41
14.1605	58.46
14.1707	58.07
14.1808	58.41
14.191	57.84
14.2012	59.50
14.2113	58.40
14.2215	60.10
14.2317	58.85
14.2418	59.04
14.252	59.98
14.2622	58.83
14.2723	59.64
14.2825	59.43
14.2927	59.29
14.3028	60.11
14.313	60.38
14.3231	60.50
14.3333	59.80
14.3435	61.24
14.3536	60.95
14.3638	60.48
14.374	60.98
14.3841	60.18
14.3943	60.98
14.4045	60.93
14.4146	61.32
14.4248	61.91
14.435	62.78
14.4451	61.09
14.4553	61.23
14.4654	61.38
14.4756	61.76
14.4858	61.87
14.4959	62.84
14.5061	63.16
14.5163	63.96
14.5264	62.41
14.5366	61.65
14.5468	63.06
14.5569	62.76
14.5671	62.63
14.5773	64.20
14.5874	64.03
14.5976	64.45
14.6078	63.73
14.6179	65.26
14.6281	64.07
14.6382	65.55
14.6484	64.09
14.6586	63.84
14.6687	64.96
14.6789	65.27
14.6891	65.54
14.6992	64.57
14.7094	66.06
14.7196	65.32
14.7297	65.87
14.7399	65.64
14.7501	65.49
14.7602	66.29
14.7704	65.98
14.7805	65.93
14.7907	66.48
14.8009	66.57
14.811	67.70
14.8212	67.96
14.8314	67.12
14.8415	68.41
14.8517	66.90
14.8619	69.48
14.872	66.12
14.8822	68.16
14.8924	68.59
14.9025	68.82
14.9127	70.25
14.9229	70.13
14.933	69.07
14.9432	69.60
14.9533	69.65
14.9635	69.32
14.9737	70.43
14.9838	69.13
14.994	69.49
15.0042	69.88
15.0143	69.90
15.0245	71.44
15.0347	69.75
15.0448	71.03
15.055	70.82
15.0652	70.79
15.0753	70.20
15.0855	71.95
15.0956	71.79
15.1058	72.23
15.116	72.52
15.1261	73.07
15.1363	72.89
15.1465	72.88
15.1566	72.34
15.1668	72.20
15.177	73.44
15.1871	73.60
15.1973	73.30
15.2075	73.18
15.2176	73.07
15.2278	73.42
15.238	73.47
15.2481	74.31
15.2583	75.62
15.2684	74.73
15.2786	73.90
15.2888	74.60
15.2989	75.69
15.3091	75.18
15.3193	73.45
15.3294	76.60
15.3396	76.13
15.3498	76.93
15.3599	76.60
15.3701	76.80
15.3803	76.51
15.3904	75.91
15.4006	76.19
15.4107	77.71
15.4209	76.88
15.4311	77.47
15.4412	77.42
15.4514	78.25
15.4616	77.21
15.4717	78.45
15.4819	79.24
15.4921	77.51
15.5022	77.84
15.5124	79.38
15.5226	77.47
15.5327	79.53
15.5429	78.22
15.553	80.74
15.5632	79.62
15.5734	79.11
15.5835	79.63
15.5937	80.18
15.6039	80.05
15.614	80.26
15.6242	81.57
15.6344	81.07
15.6445	82.01
15.6547	81.05
15.6649	81.78
15.675	81.59
15.6852	81.12
15.6954	80.79
15.7055	82.23
15.7157	81.49
15.7258	81.20
15.736	84.01
15.7462	82.96
15.7563	84.13
15.7665	85.56
15.7767	83.60
15.7868	85.01
15.797	84.24
15.8072	84.95
15.8173	83.74
15.8275	84.79
15.8377	85.85
15.8478	87.30
15.858	85.51
15.8681	85.90
15.8783	84.33
15.8885	86.24
15.8986	86.70
15.9088	87.02
15.919	87.10
15.9291	87.37
15.9393	87.15
15.9495	87.09
15.9596	87.65
15.9698	86.34
15.98	86.45
15.9901	88.15
16.0003	88.12
16.0105	88.85
16.0206	88.76
16.0308	89.18
16.0409	88.84
16.0511	89.30
16.0613	89.91
16.0714	89.34
16.0816	88.93
16.0918	91.13
16.1019	90.10
16.1121	90.69
16.1223	90.18
16.1324	92.68
16.1426	91.68
16.1528	91.43
16.1629	91.93
16.1731	92.24
16.1832	90.53
16.1934	91.59
16.2036	93.62
16.2137	93.23
16.2239	93.71
16.2341	91.92
16.2442	93.06
16.2544	94.15
16.2646	94.05
16.2747	92.89
16.2849	95.21
16.2951	95.33
16.3052	95.01
16.3154	95.82
16.3256	96.24
16.3357	94.09
16.3459	97.20
16.356	98.60
16.3662	97.18
16.3764	96.12
16.3865	97.25
16.3967	96.23
16.4069	96.99
16.417	99.36
16.4272	98.62
16.4374	98.69
16.4475	98.74
16.4577	98.77
16.4679	98.23
16.478	101.35
16.4882	99.78
16.4983	100.10
16.5085	101.00
16.5187	99.55
16.5288	102.37
16.539	99.35
16.5492	100.63
16.5593	102.18
16.5695	100.98
16.5797	101.52
16.5898	100.52
16.6	102.59
16.6102	103.79
16.6203	102.38
16.6305	103.10
16.6407	103.62
16.6508	103.44
16.661	103.71
16.6711	103.12
16.6813	103.15
16.6915	103.44
16.7016	105.87
16.7118	104.86
16.722	105.39
16.7321	104.21
16.7423	105.72
16.7525	105.30
16.7626	105.91
16.7728	106.30
16.783	108.03
16.7931	106.98
16.8033	106.49
16.8134	106.91
16.8236	106.27
16.8338	105.74
16.8439	108.09
16.8541	108.82
16.8643	108.34
16.8744	108.40
16.8846	109.76
16.8948	109.48
16.9049	108.93
16.9151	109.94
16.9253	110.36
16.9354	109.96
16.9456	109.87
16.9558	109.96
16.9659	110.63
16.9761	109.91
16.9862	110.35
16.9964	112.32
17.0066	110.09
17.0167	112.71
17.0269	112.38
17.0371	111.37
17.0472	113.76
17.0574	113.24
17.0676	111.79
17.0777	112.13
17.0879	114.46
17.0981	112.45
17.1082	114.04
17.1184	113.80
17.1285	113.90
17.1387	113.84
17.1489	115.57
17.159	114.15
17.1692	114.01
17.1794	116.55
17.1895	115.55
17.1997	114.74
17.2099	116.22
17.22	115.69
17.2302	116.22
17.2404	118.12
17.2505	117.42
17.2607	115.93
17.2709	118.38
17.281	118.85
17.2912	118.15
17.3013	120.01
17.3115	117.87
17.3217	118.88
17.3318	119.90
17.342	119.35
17.3522	121.12
17.3623	120.60
17.3725	120.09
17.3827	121.10
17.3928	121.05
17.403	121.74
17.4132	123.04
17.4233	122.43
17.4335	122.45
17.4436	122.20
17.4538	124.99
17.464	123.95
17.4741	124.24
17.4843	126.74
17.4945	126.16
17.5046	125.31
17.5148	126.99
17.525	126.95
17.5351	127.63
17.5453	129.63
17.5555	126.82
17.5656	127.13
17.5758	128.13
17.5859	127.38
17.5961	130.12
17.6063	130.75
17.6164	131.20
17.6266	130.76
17.6368	132.17
17.6469	131.81
17.6571	130.73
17.6673	135.02
17.6774	135.00
17.6876	137.12
17.6978	135.29
17.7079	136.37
17.7181	136.75
17.7283	139.40
17.7384	140.42
17.7486	138.55
17.7587	140.59
17.7689	138.98
17.7791	139.76
17.7892	141.66
17.7994	142.75
17.8096	145.06
17.8197	144.91
17.8299	145.01
17.8401	148.35
17.8502	149.24
17.8604	148.15
17.8706	149.67
17.8807	151.06
17.8909	151.00
17.901	151.63
17.9112	157.28
17.9214	155.31
17.9315	156.98
17.9417	161.48
17.9519	160.72
17.962	160.20
17.9722	164.71
17.9824	164.18
17.9925	167.87
18.0027	168.79
18.0129	168.21
18.023	169.70
18.0332	173.92
18.0434	173.15
18.0535	175.77
18.0637	178.71
18.0738	179.34
18.084	180.74
18.0942	187.12
18.1043	184.40
18.1145	186.21
18.1247	190.82
18.1348	192.63
18.145	194.24
18.1552	198.29
18.1653	198.63
18.1755	200.65
18.1857	205.32
18.1958	206.30
18.206	207.85
18.2161	211.30
18.2263	213.47
18.2365	214.27
18.2466	219.74
18.2568	219.55
18.267	221.66
18.2771	226.03
18.2873	227.05
18.2975	225.43
18.3076	233.04
18.3178	233.24
18.328	236.82
18.3381	237.94
18.3483	241.18
18.3585	241.28
18.3686	246.12
18.3788	246.02
18.3889	246.02
18.3991	249.82
18.4093	248.49
18.4194	250.24
18.4296	253.87
18.4398	253.76
18.4499	253.30
18.4601	256.70
18.4703	256.71
18.4804	255.05
18.4906	256.93
18.5008	256.25
18.5109	253.25
18.5211	255.16
18.5312	253.82
18.5414	251.30
18.5516	254.34
18.5617	252.43
18.5719	249.05
18.5821	250.43
18.5922	247.95
18.6024	246.13
18.6126	244.87
18.6227	242.45
18.6329	240.91
18.6431	239.75
18.6532	237.36
18.6634	234.75
18.6736	234.48
18.6837	232.49
18.6939	228.08
18.704	226.99
18.7142	225.60
18.7244	224.17
18.7345	219.04
18.7447	217.86
18.7549	214.49
18.765	210.68
18.7752	210.59
18.7854	208.40
18.7955	207.16
18.8057	205.69
18.8159	201.71
18.826	200.53
18.8362	197.03
18.8463	193.12
18.8565	192.05
18.8667	190.85
18.8768	189.33
18.887	189.60
18.8972	185.99
18.9073	182.66
18.9175	183.85
18.9277	182.34
18.9378	179.51
18.948	177.54
18.9582	175.55
18.9683	173.90
18.9785	175.16
18.9887	172.55
18.9988	170.05
19.009	168.67
19.0191	169.79
19.0293	165.86
19.0395	166.94
19.0496	164.43
19.0598	164.29
19.07	161.51
19.0801	159.58
19.0903	157.90
19.1005	161.05
19.1106	160.31
19.1208	157.49
19.131	156.17
19.1411	156.85
19.1513	152.35
19.1614	153.32
19.1716	156.29
19.1818	151.99
19.1919	151.75
19.2021	151.37
19.2123	149.56
19.2224	149.08
19.2326	149.24
19.2428	145.35
19.2529	147.69
19.2631	147.43
19.2733	145.54
19.2834	146.61
19.2936	144.67
19.3038	143.98
19.3139	147.07
19.3241	143.54
19.3342	141.85
19.3444	143.77
19.3546	142.76
19.3647	141.95
19.3749	140.51
19.3851	140.58
19.3952	140.45
19.4054	140.18
19.4156	139.83
19.4257	140.57
19.4359	138.79
19.4461	141.37
19.4562	139.54
19.4664	139.90
19.4765	139.39
19.4867	137.96
19.4969	140.60
19.507	137.98
19.5172	136.96
19.5274	136.59
19.5375	135.66
19.5477	134.85
19.5579	136.40
19.568	136.82
19.5782	135.51
19.5884	136.65
19.5985	136.18
19.6087	135.34
19.6188	135.40
19.629	135.29
19.6392	133.97
19.6493	135.81
19.6595	136.70
19.6697	135.65
19.6798	136.07
19.69	135.19
19.7002	135.72
19.7103	134.32
19.7205	136.04
19.7307	135.07
19.7408	133.76
19.751	135.90
19.7612	135.18
19.7713	133.80
19.7815	133.90
19.7916	134.18
19.8018	134.64
19.812	135.46
19.8221	133.59
19.8323	136.55
19.8425	136.75
19.8526	134.49
19.8628	135.26
19.873	135.26
19.8831	134.68
19.8933	135.73
19.9035	134.59
19.9136	136.22
19.9238	134.62
19.9339	137.62
19.9441	136.12
19.9543	137.80
19.9644	135.52
19.9746	137.38
19.9848	137.51
19.9949	137.12
20.0051	137.01
20.0153	137.49
20.0254	138.57
20.0356	137.79
20.0458	138.49
20.0559	137.68
20.0661	138.46
20.0763	140.43
20.0864	136.11
20.0966	137.37
20.1067	140.83
20.1169	138.92
20.1271	138.57
20.1372	138.04
20.1474	140.63
20.1576	140.88
20.1677	140.04
20.1779	141.45
20.1881	138.79
20.1982	139.50
20.2084	140.20
20.2186	138.59
20.2287	142.78
20.2389	141.62
20.249	140.45
20.2592	141.16
20.2694	142.42
20.2795	141.20
20.2897	142.43
20.2999	141.87
20.31	140.84
20.3202	143.61
20.3304	142.90
20.3405	141.92
20.3507	143.18
20.3609	142.58
20.371	142.51
20.3812	144.87
20.3914	143.09
20.4015	141.04
20.4117	142.41
20.4218	143.62
20.432	141.09
20.4422	140.01
20.4523	141.48
20.4625	141.74
20.4727	141.85
20.4828	142.23
20.493	138.85
20.5032	141.62
20.5133	141.57
20.5235	138.29
20.5337	140.88
20.5438	138.74
20.554	137.29
20.5641	141.04
20.5743	139.36
20.5845	138.48
20.5946	140.87
20.6048	138.68
20.615	135.75
20.6251	138.43
20.6353	136.74
20.6455	135.16
20.6556	136.37
20.6658	135.74
20.676	135.47
20.6861	134.49
20.6963	135.63
20.7065	133.32
20.7166	134.20
20.7268	131.50
20.7369	131.69
20.7471	131.21
20.7573	130.63
20.7674	129.52
20.7776	130.31
20.7878	129.39
20.7979	129.03
20.8081	129.13
20.8183	127.93
20.8284	128.87
20.8386	127.06
20.8488	127.11
20.8589	125.46
20.8691	126.72
20.8792	126.55
20.8894	126.22
20.8996	127.33
20.9097	125.05
20.9199	124.32
20.9301	124.95
20.9402	124.77
20.9504	123.65
20.9606	123.94
20.9707	122.68
20.9809	121.29
20.9911	123.77
21.0012	121.51
21.0114	121.49
21.0216	121.84
21.0317	120.75
21.0419	120.61
21.052	120.43
21.0622	120.45
21.0724	120.29
21.0825	121.55
21.0927	121.37
21.1029	118.02
21.113	120.48
21.1232	119.36
21.1334	118.28
21.1435	116.62
21.1537	120.67
21.1639	117.94
21.174	118.93
21.1842	120.16
21.1943	117.73
21.2045	119.66
21.2147	119.54
21.2248	117.26
21.235	118.39
21.2452	118.83
21.2553	118.40
21.2655	118.17
21.2757	117.66
21.2858	116.21
21.296	119.69
21.3062	120.30
21.3163	117.43
21.3265	119.51
21.3366	117.66
21.3468	119.45
21.357	118.24
21.3671	120.08
21.3773	118.45
21.3875	120.69
21.3976	119.18
21.4078	119.98
21.418	120.04
21.4281	118.33
21.4383	119.16
21.4485	120.79
21.4586	120.51
21.4688	119.03
21.479	119.91
21.4891	120.11
21.4993	121.46
21.5094	122.43
21.5196	122.89
21.5298	122.09
21.5399	123.84
21.5501	122.75
21.5603	124.15
21.5704	124.52
21.5806	124.80
21.5908	123.82
21.6009	126.21
21.6111	127.48
21.6213	124.99
21.6314	127.76
21.6416	128.65
21.6517	128.65
21.6619	130.73
21.6721	131.67
21.6822	130.11
21.6924	131.77
21.7026	133.78
21.7127	131.38
21.7229	134.51
21.7331	134.08
21.7432	134.81
21.7534	135.94
21.7636	135.41
21.7737	136.00
21.7839	136.84
21.7941	137.45
21.8042	138.63
21.8144	140.43
21.8245	141.27
21.8347	138.92
21.8449	140.84
21.855	142.16
21.8652	141.40
21.8754	144.77
21.8855	144.06
21.8957	142.86
21.9059	146.05
21.916	146.98
21.9262	146.04
21.9364	148.52
21.9465	148.60
21.9567	146.61
21.9668	148.76
21.977	150.34
21.9872	150.56
21.9973	151.73
22.0075	151.99
22.0177	150.23
22.0278	152.39
22.038	154.20
22.0482	154.28
22.0583	155.34
22.0685	155.71
22.0787	154.90
22.0888	157.91
22.099	155.68
22.1092	157.04
22.1193	160.40
22.1295	159.38
22.1396	156.10
22.1498	159.68
22.16	159.43
22.1701	159.76
22.1803	159.24
22.1905	161.36
22.2006	156.66
22.2108	158.87
22.221	161.62
22.2311	158.52
22.2413	161.07
22.2515	162.34
22.2616	160.44
22.2718	159.35
22.2819	162.70
22.2921	160.29
22.3023	159.48
22.3124	162.18
22.3226	159.38
22.3328	159.34
22.3429	161.09
22.3531	157.77
22.3633	157.32
22.3734	158.65
22.3836	156.54
22.3938	160.00
22.4039	156.90
22.4141	154.06
22.4243	156.98
22.4344	154.59
22.4446	153.04
22.4547	155.52
22.4649	152.18
22.4751	152.58
22.4852	151.74
22.4954	152.09
22.5056	150.27
22.5157	152.02
22.5259	150.11
22.5361	148.22
22.5462	147.58
22.5564	148.31
22.5666	145.37
22.5767	143.97
22.5869	145.17
22.597	143.40
22.6072	144.02
22.6174	143.25
22.6275	140.87
22.6377	141.54
22.6479	140.80
22.658	138.81
22.6682	138.44
22.6784	138.91
22.6885	136.65
22.6987	135.87
22.7089	137.71
22.719	133.24
22.7292	133.31
22.7394	133.94
22.7495	131.49
22.7597	131.25
22.7698	130.04
22.78	127.60
22.7902	128.82
22.8003	129.20
22.8105	125.95
22.8207	127.04
22.8308	127.40
22.841	124.07
22.8512	123.89
22.8613	124.08
22.8715	121.17
22.8817	122.40
22.8918	121.12
22.902	120.38
22.9121	119.82
22.9223	120.24
22.9325	118.39
22.9426	117.93
22.9528	118.41
22.963	116.50
22.9731	116.34
22.9833	115.09
22.9935	113.80
23.0036	112.50
23.0138	114.80
23.024	110.27
23.0341	113.02
23.0443	110.15
23.0545	108.49
23.0646	108.59
23.0748	108.26
23.0849	107.99
23.0951	106.07
23.1053	106.88
23.1154	104.83
23.1256	104.91
23.1358	106.23
23.1459	103.10
23.1561	103.81
23.1663	103.19
23.1764	102.89
23.1866	100.26
23.1968	100.81
23.2069	100.04
23.2171	101.23
23.2272	98.68
23.2374	99.92
23.2476	98.62
23.2577	97.82
23.2679	95.82
23.2781	97.74
23.2882	94.67
23.2984	95.51
23.3086	94.24
23.3187	96.06
23.3289	93.76
23.3391	93.88
23.3492	93.34
23.3594	92.66
23.3695	93.48
23.3797	92.26
23.3899	92.71
23.4	89.82
23.4102	90.16
23.4204	90.24
23.4305	89.20
23.4407	88.93
23.4509	88.67
23.461	89.09
23.4712	88.43
23.4814	88.71
23.4915	87.62
23.5017	86.15
23.5119	85.90
23.522	86.74
23.5322	86.17
23.5423	85.26
23.5525	85.93
23.5627	84.09
23.5728	83.04
23.583	83.79
23.5932	83.38
23.6033	82.67
23.6135	82.77
23.6237	82.15
23.6338	81.60
23.644	83.07
23.6542	81.04
23.6643	81.71
23.6745	80.29
23.6846	80.21
23.6948	80.07
23.705	79.49
23.7151	77.74
23.7253	78.04
23.7355	79.36
23.7456	78.68
23.7558	78.18
23.766	76.46
23.7761	76.60
23.7863	77.14
23.7965	77.95
23.8066	75.84
23.8168	76.99
23.827	76.27
23.8371	76.26
23.8473	76.13
23.8574	75.85
23.8676	75.62
23.8778	73.93
23.8879	73.97
23.8981	74.34
23.9083	73.96
23.9184	72.76
23.9286	73.64
23.9388	72.39
23.9489	74.22
23.9591	73.69
23.9693	74.19
23.9794	72.78
23.9896	73.01
23.9997	73.23
24.0099	71.90
24.0201	70.65
24.0302	71.45
24.0404	70.59
24.0506	71.83
24.0607	71.38
24.0709	70.30
24.0811	70.17
24.0912	70.11
24.1014	70.54
24.1116	69.76
24.1217	69.73
24.1319	70.42
24.1421	70.09
24.1522	69.74
24.1624	69.34
24.1725	69.51
24.1827	67.96
24.1929	68.28
24.203	69.38
24.2132	67.94
24.2234	68.53
24.2335	67.40
24.2437	68.51
24.2539	68.47
24.264	67.41
24.2742	67.90
24.2844	67.76
24.2945	67.49
24.3047	65.47
24.3148	67.58
24.325	67.52
24.3352	66.30
24.3453	66.55
24.3555	67.28
24.3657	65.86
24.3758	65.63
24.386	65.57
24.3962	66.21
24.4063	66.50
24.4165	66.48
24.4267	65.46
24.4368	65.62
24.447	67.10
24.4572	65.30
24.4673	65.88
24.4775	64.74
24.4876	64.85
24.4978	64.37
24.508	65.79
24.5181	63.95
24.5283	63.70
24.5385	64.37
24.5486	64.55
24.5588	62.91
24.569	63.18
24.5791	64.12
24.5893	64.20
24.5995	63.88
24.6096	62.90
24.6198	64.16
24.6299	63.06
24.6401	62.76
24.6503	62.82
24.6604	62.16
24.6706	62.53
24.6808	63.03
24.6909	61.92
24.7011	63.35
24.7113	62.07
24.7214	63.63
24.7316	62.38
24.7418	61.45
24.7519	61.49
24.7621	61.73
24.7723	61.20
24.7824	62.23
24.7926	62.72
24.8027	62.01
24.8129	61.43
24.8231	61.85
24.8332	61.85
24.8434	61.14
24.8536	61.35
24.8637	61.29
24.8739	61.24
24.8841	61.04
24.8942	61.59
24.9044	60.99
24.9146	60.66
24.9247	59.52
24.9349	60.31
24.945	60.90
24.9552	60.91
24.9654	60.05
24.9755	60.60
24.9857	60.83
24.9959	60.84
25.006	58.96
25.0162	60.30
25.0264	60.45
25.0365	59.57
25.0467	60.18
25.0569	60.46
25.067	59.87
25.0772	59.64
25.0874	59.90
25.0975	58.84
25.1077	59.16
25.1178	59.32
25.128	59.49
25.1382	60.04
25.1483	58.45
25.1585	59.04
25.1687	58.52
25.1788	59.60
25.189	58.93
25.1992	57.57
25.2093	57.76
25.2195	58.59
25.2297	57.22
25.2398	58.94
25.25	59.49
25.2601	58.54
25.2703	58.92
25.2805	58.41
25.2906	58.59
25.3008	59.26
25.311	58.05
25.3211	57.70
25.3313	57.31
25.3415	57.24
25.3516	57.62
25.3618	57.33
25.372	56.05
25.3821	57.45
25.3923	58.65
25.4024	56.60
25.4126	57.79
25.4228	57.74
25.4329	58.43
25.4431	57.01
25.4533	56.11
25.4634	57.26
25.4736	57.46
25.4838	58.10
25.4939	57.70
25.5041	56.55
25.5143	56.29
25.5244	56.27
25.5346	57.71
25.5448	55.51
25.5549	55.74
25.5651	54.95
25.5752	56.76
25.5854	56.47
25.5956	55.16
25.6057	55.66
25.6159	54.95
25.6261	56.66
25.6362	55.81
25.6464	56.15
25.6566	56.10
25.6667	55.02
25.6769	55.18
25.6871	54.84
25.6972	54.03
25.7074	56.48
25.7175	55.73
25.7277	55.05
25.7379	54.99
25.748	54.54
25.7582	55.35
25.7684	55.18
25.7785	54.93
25.7887	55.17
25.7989	54.38
25.809	55.39
25.8192	54.50
25.8294	53.85
25.8395	55.60
25.8497	54.64
25.8599	54.99
25.87	53.23
25.8802	54.34
25.8903	53.72
25.9005	54.83
25.9107	54.27
25.9208	53.14
25.931	55.28
25.9412	54.43
25.9513	54.79
25.9615	53.70
25.9717	54.16
25.9818	53.75
25.992	54.70
26.0022	53.68
26.0123	54.01
26.0225	55.01
26.0326	54.55
26.0428	53.65
26.053	53.93
26.0631	54.09
26.0733	52.63
26.0835	54.37
26.0936	53.10
26.1038	52.90
26.114	53.32
26.1241	52.63
26.1343	52.73
26.1445	53.13
26.1546	52.76
26.1648	52.93
26.175	53.46
26.1851	52.83
26.1953	52.87
26.2054	52.01
26.2156	52.20
26.2258	52.46
26.2359	53.02
26.2461	52.66
26.2563	53.26
26.2664	52.47
26.2766	52.49
26.2868	53.60
26.2969	52.88
26.3071	52.71
26.3173	52.40
26.3274	52.64
26.3376	52.43
26.3477	52.52
26.3579	52.26
26.3681	53.23
26.3782	52.21
26.3884	50.96
26.3986	52.06
26.4087	51.27
26.4189	51.17
26.4291	51.87
26.4392	51.63
26.4494	51.38
26.4596	51.50
26.4697	52.24
26.4799	51.62
26.4901	52.24
26.5002	51.98
26.5104	51.55
26.5205	51.46
26.5307	51.90
26.5409	50.71
26.551	51.01
26.5612	49.34
26.5714	51.15
26.5815	51.45
26.5917	51.57
26.6019	52.70
26.612	51.40
26.6222	51.95
26.6324	51.54
26.6425	50.37
26.6527	51.45
26.6628	50.68
26.673	51.60
26.6832	50.36
26.6933	51.09
26.7035	51.35
26.7137	50.93
26.7238	50.85
26.734	50.52
26.7442	50.61
26.7543	51.15
26.7645	50.96
26.7747	51.44
26.7848	50.07
26.795	51.01
26.8052	50.54
26.8153	51.10
26.8255	50.53
26.8356	50.62
26.8458	50.20
26.856	50.96
26.8661	51.38
26.8763	50.37
26.8865	50.31
26.8966	49.55
26.9068	49.98
26.917	51.23
26.9271	50.52
26.9373	50.28
26.9475	49.76
26.9576	50.63
26.9678	50.77
26.9779	49.94
26.9881	50.70
26.9983	50.37
27.0084	50.73
27.0186	49.51
27.0288	50.62
27.0389	50.23
27.0491	49.51
27.0593	50.00
27.0694	50.90
27.0796	50.34
27.0898	50.51
27.0999	50.60
27.1101	50.20
27.1202	50.88
27.1304	49.34
27.1406	50.28
27.1507	50.34
27.1609	49.85
27.1711	49.91
27.1812	50.34
27.1914	51.01
27.2016	50.45
27.2117	50.99
27.2219	50.32
27.2321	50.10
27.2422	51.21
27.2524	50.12
27.2626	51.25
27.2727	49.99
27.2829	50.65
27.293	51.01
27.3032	49.95
27.3134	50.65
27.3235	50.97
27.3337	50.33
27.3439	50.63
27.354	50.93
27.3642	50.15
27.3744	51.18
27.3845	51.10
27.3947	51.64
27.4049	51.13
27.415	50.82
27.4252	50.98
27.4353	52.34
27.4455	50.31
27.4557	51.01
27.4658	51.50
27.476	51.51
27.4862	51.71
27.4963	51.73
27.5065	51.77
27.5167	52.25
27.5268	51.92
27.537	51.09
27.5472	52.41
27.5573	52.98
27.5675	52.11
27.5777	52.99
27.5878	52.99
27.598	52.17
27.6081	53.49
27.6183	53.38
27.6285	53.60
27.6386	53.09
27.6488	53.73
27.659	54.59
27.6691	53.85
27.6793	54.21
27.6895	54.69
27.6996	53.95
27.7098	54.13
27.72	54.56
27.7301	54.76
27.7403	54.49
27.7504	55.55
27.7606	55.14
27.7708	54.46
27.7809	55.75
27.7911	55.49
27.8013	55.40
27.8114	57.07
27.8216	56.60
27.8318	57.41
27.8419	56.73
27.8521	57.74
27.8623	58.21
27.8724	57.16
27.8826	58.10
27.8928	59.65
27.9029	57.98
27.9131	57.90
27.9232	60.62
27.9334	59.45
27.9436	58.59
27.9537	60.75
27.9639	60.04
27.9741	61.11
27.9842	60.70
27.9944	60.55
28.0046	60.65
28.0147	60.01
28.0249	61.13
28.0351	61.38
28.0452	62.35
28.0554	62.09
28.0655	61.98
28.0757	64.20
28.0859	62.29
28.096	63.85
28.1062	62.54
28.1164	62.32
28.1265	62.92
28.1367	63.74
28.1469	64.95
28.157	64.27
28.1672	65.12
28.1774	65.10
28.1875	64.35
28.1977	64.68
28.2079	65.29
28.218	66.47
28.2282	65.62
28.2383	65.44
28.2485	65.68
28.2587	66.35
28.2688	65.49
28.279	66.47
28.2892	66.87
28.2993	66.21
28.3095	65.05
28.3197	66.13
28.3298	64.73
28.34	65.91
28.3502	65.98
28.3603	67.03
28.3705	66.45
28.3806	65.91
28.3908	65.76
28.401	65.78
28.4111	66.13
28.4213	67.74
28.4315	65.66
28.4416	66.32
28.4518	65.32
28.462	65.72
28.4721	64.48
28.4823	65.11
28.4925	65.30
28.5026	63.97
28.5128	65.38
28.523	63.27
28.5331	63.68
28.5433	64.46
28.5534	62.61
28.5636	65.20
28.5738	63.30
28.5839	62.95
28.5941	61.50
28.6043	62.70
28.6144	62.04
28.6246	62.24
28.6348	61.10
28.6449	62.73
28.6551	61.88
28.6653	60.46
28.6754	60.97
28.6856	60.66
28.6957	62.14
28.7059	60.66
28.7161	61.11
28.7262	60.34
28.7364	59.71
28.7466	58.95
28.7567	59.10
28.7669	58.20
28.7771	57.55
28.7872	59.01
28.7974	58.23
28.8076	56.68
28.8177	56.66
28.8279	57.64
28.8381	56.29
28.8482	57.07
28.8584	56.57
28.8685	55.86
28.8787	56.68
28.8889	55.80
28.899	55.78
28.9092	56.09
28.9194	54.73
28.9295	54.13
28.9397	54.66
28.9499	53.85
28.96	53.71
28.9702	54.30
28.9804	54.56
28.9905	53.69
29.0007	53.95
29.0108	52.19
29.021	52.25
29.0312	52.38
29.0413	52.30
29.0515	53.33
29.0617	52.29
29.0718	51.66
29.082	52.48
29.0922	52.73
29.1023	51.94
29.1125	51.01
29.1227	51.79
29.1328	51.27
29.143	51.56
29.1531	51.31
29.1633	49.98
29.1735	50.56
29.1836	50.23
29.1938	49.30
29.204	49.87
29.2141	49.46
29.2243	49.46
29.2345	49.82
29.2446	50.12
29.2548	49.57
29.265	49.67
29.2751	48.91
29.2853	47.67
29.2955	48.55
29.3056	48.73
29.3158	48.02
29.3259	48.32
29.3361	48.22
29.3463	48.19
29.3564	47.87
29.3666	47.68
29.3768	48.49
29.3869	46.75
29.3971	47.32
29.4073	46.77
29.4174	46.34
29.4276	46.96
29.4378	45.66
29.4479	47.40
29.4581	45.84
29.4682	46.19
29.4784	46.62
29.4886	45.63
29.4987	46.14
29.5089	46.40
29.5191	46.44
29.5292	45.74
29.5394	45.60
29.5496	45.63
29.5597	45.57
29.5699	45.70
29.5801	45.46
29.5902	45.67
29.6004	45.18
29.6106	46.03
29.6207	45.31
29.6309	45.26
29.641	45.34
29.6512	45.16
29.6614	45.10
29.6715	45.83
29.6817	44.68
29.6919	44.61
29.702	45.79
29.7122	44.84
29.7224	44.60
29.7325	44.90
29.7427	44.35
29.7529	44.34
29.763	44.35
29.7732	43.98
29.7833	44.66
29.7935	44.34
29.8037	43.76
29.8138	43.65
29.824	44.18
29.8342	43.10
29.8443	43.49
29.8545	43.94
29.8647	43.29
29.8748	43.79
29.885	43.27
29.8952	43.30
29.9053	43.71
29.9155	43.25
29.9257	42.86
29.9358	43.70
29.946	42.20
29.9561	43.07
29.9663	42.95
29.9765	42.91
29.9866	42.76
29.9968	43.19
30.007	42.02
30.0171	41.80
30.0273	42.86
30.0375	43.58
30.0476	42.39
30.0578	43.05
30.068	42.51
30.0781	41.28
30.0883	41.96
30.0984	42.52
30.1086	41.44
30.1188	41.10
30.1289	41.93
30.1391	40.99
30.1493	41.12
30.1594	40.94
30.1696	40.74
30.1798	41.29
30.1899	41.48
30.2001	41.05
30.2103	40.56
30.2204	40.70
30.2306	39.86
30.2408	40.57
30.2509	39.95
30.2611	39.43
30.2712	39.59
30.2814	39.92
30.2916	39.70
30.3017	39.76
30.3119	38.77
30.3221	39.01
30.3322	39.68
30.3424	40.14
30.3526	38.38
30.3627	39.29
30.3729	38.95
30.3831	38.32
30.3932	38.27
30.4034	39.38
30.4135	38.78
30.4237	38.70
30.4339	38.37
30.444	38.18
30.4542	38.01
30.4644	38.04
30.4745	38.07
30.4847	38.80
30.4949	39.40
30.505	38.55
30.5152	38.34
30.5254	37.96
30.5355	37.65
30.5457	37.95
30.5559	37.74
30.566	37.51
30.5762	37.20
30.5863	37.61
30.5965	37.24
30.6067	37.66
30.6168	36.66
30.627	36.90
30.6372	36.90
30.6473	36.82
30.6575	37.72
30.6677	37.35
30.6778	36.29
30.688	36.80
30.6982	36.54
30.7083	36.46
30.7185	36.62
30.7286	37.47
30.7388	36.46
30.749	36.71
30.7591	36.78
30.7693	37.10
30.7795	36.18
30.7896	36.63
30.7998	36.67
30.81	36.10
30.8201	36.40
30.8303	36.56
30.8405	35.82
30.8506	36.71
30.8608	35.66
30.871	35.56
30.8811	35.81
30.8913	36.11
30.9014	36.13
30.9116	36.05
30.9218	36.07
30.9319	36.20
30.9421	35.70
30.9523	34.81
30.9624	35.43
30.9726	35.49
30.9828	35.87
30.9929	35.28
31.0031	34.65
31.0133	36.81
31.0234	35.98
31.0336	35.25
31.0437	35.76
31.0539	35.02
31.0641	35.83
31.0742	35.11
31.0844	33.55
31.0946	35.41
31.1047	35.29
31.1149	34.54
31.1251	35.58
31.1352	35.32
31.1454	34.66
31.1556	33.99
31.1657	34.83
31.1759	35.57
31.186	34.38
31.1962	35.73
31.2064	34.62
31.2165	35.27
31.2267	35.05
31.2369	35.30
31.247	34.12
31.2572	34.51
31.2674	33.87
31.2775	34.35
31.2877	34.84
31.2979	33.34
31.308	34.10
31.3182	33.89
31.3284	33.72
31.3385	34.27
31.3487	33.76
31.3588	33.42
31.369	34.34
31.3792	35.38
31.3893	33.88
31.3995	33.49
31.4097	34.76
31.4198	33.95
31.43	34.29
31.4402	34.87
31.4503	33.55
31.4605	34.25
31.4707	33.53
31.4808	33.95
31.491	34.05
31.5011	33.81
31.5113	33.93
31.5215	33.35
31.5316	35.02
31.5418	33.81
31.552	33.33
31.5621	34.40
31.5723	33.19
31.5825	33.67
31.5926	33.96
31.6028	33.27
31.613	33.57
31.6231	33.15
31.6333	33.44
31.6435	33.23
31.6536	33.62
31.6638	32.31
31.6739	33.41
31.6841	33.90
31.6943	33.35
31.7044	33.46
31.7146	33.75
31.7248	33.07
31.7349	33.28
31.7451	33.07
31.7553	33.33
31.7654	32.55
31.7756	33.32
31.7858	32.59
31.7959	33.38
31.8061	32.90
31.8162	33.78
31.8264	33.86
31.8366	33.49
31.8467	33.26
31.8569	33.49
31.8671	33.22
31.8772	32.84
31.8874	32.82
31.8976	33.31
31.9077	32.85
31.9179	33.01
31.9281	33.20
31.9382	33.23
31.9484	33.77
31.9586	33.31
31.9687	32.84
31.9789	32.69
31.989	33.10
31.9992	33.36
32.0094	32.86
32.0195	33.96
32.0297	32.75
32.0399	33.20
32.05	33.19
32.0602	33.68
32.0704	32.87
32.0805	33.27
32.0907	32.93
32.1009	33.29
32.111	33.30
32.1212	32.49
32.1313	32.74
32.1415	33.20
32.1517	32.72
32.1618	33.19
32.172	32.82
32.1822	32.42
32.1923	32.88
32.2025	32.93
32.2127	32.72
32.2228	32.83
32.233	33.39
32.2432	32.81
32.2533	33.07
32.2635	33.10
32.2737	33.09
32.2838	33.15
32.294	31.91
32.3041	32.56
32.3143	32.40
32.3245	33.07
32.3346	32.33
32.3448	33.32
32.355	32.46
32.3651	32.18
32.3753	33.09
32.3855	32.66
32.3956	33.21
32.4058	32.93
32.416	33.05
32.4261	33.05
32.4363	33.40
32.4464	32.33
32.4566	31.89
32.4668	32.34
32.4769	32.86
32.4871	32.65
32.4973	32.71
32.5074	33.27
32.5176	33.18
32.5278	33.37
32.5379	32.55
32.5481	32.39
32.5583	33.08
32.5684	32.89
32.5786	32.32
32.5888	32.93
32.5989	32.50
32.6091	32.01
32.6192	33.23
32.6294	34.34
32.6396	32.59
32.6497	32.72
32.6599	31.94
32.6701	32.33
32.6802	33.09
32.6904	32.51
32.7006	32.63
32.7107	32.46
32.7209	32.69
32.7311	32.46
32.7412	33.54
32.7514	32.51
32.7615	32.96
32.7717	32.68
32.7819	31.99
32.792	33.13
32.8022	32.71
32.8124	32.85
32.8225	32.78
32.8327	33.33
32.8429	32.51
32.853	33.11
32.8632	32.49
32.8734	32.79
32.8835	31.63
32.8937	32.79
32.9039	33.68
32.914	32.72
32.9242	33.09
32.9343	34.05
32.9445	33.02
32.9547	32.71
32.9648	33.21
32.975	32.57
32.9852	32.92
32.9953	32.41
33.0055	32.31
33.0157	33.01
33.0258	33.28
33.036	33.10
33.0462	32.87
33.0563	33.20
33.0665	33.59
33.0766	33.29
33.0868	32.79
33.097	33.90
33.1071	32.57
33.1173	33.45
33.1275	33.58
33.1376	33.13
33.1478	32.63
33.158	32.95
33.1681	33.84
33.1783	32.84
33.1885	33.01
33.1986	33.51
33.2088	33.98
33.2189	34.10
33.2291	33.40
33.2393	34.10
33.2494	33.30
33.2596	33.44
33.2698	33.55
33.2799	32.96
33.2901	33.56
33.3003	33.15
33.3104	32.93
33.3206	33.04
33.3308	32.82
33.3409	33.15
33.3511	33.33
33.3613	32.54
33.3714	33.05
33.3816	33.37
33.3917	32.91
33.4019	32.77
33.4121	33.25
33.4222	32.88
33.4324	32.63
33.4426	32.29
33.4527	32.55
33.4629	32.51
33.4731	32.84
33.4832	32.37
33.4934	32.13
33.5036	32.91
33.5137	32.09
33.5239	31.98
33.534	32.72
33.5442	32.44
33.5544	31.38
33.5645	31.68
33.5747	31.70
33.5849	31.30
33.595	31.79
33.6052	31.09
33.6154	30.29
33.6255	30.93
33.6357	30.99
33.6459	30.67
33.656	30.97
33.6662	30.21
33.6764	30.77
33.6865	30.26
33.6967	30.06
33.7068	30.62
33.717	29.82
33.7272	30.24
33.7373	29.83
33.7475	30.23
33.7577	29.92
33.7678	29.26
33.778	30.32
33.7882	30.20
33.7983	28.99
33.8085	29.57
33.8187	29.45
33.8288	29.27
33.839	28.60
33.8491	29.88
33.8593	28.85
33.8695	29.24
33.8796	29.38
33.8898	28.32
33.9	29.04
33.9101	28.91
33.9203	28.24
33.9305	29.05
33.9406	28.94
33.9508	28.94
33.961	28.24
33.9711	27.79
33.9813	28.93
33.9915	28.40
34.0016	28.62
34.0118	28.75
34.0219	28.24
34.0321	27.55
34.0423	28.10
34.0524	27.80
34.0626	28.44
34.0728	28.44
34.0829	28.42
34.0931	28.41
34.1033	28.40
34.1134	28.54
34.1236	28.07
34.1338	27.94
34.1439	28.12
34.1541	26.71
34.1642	27.74
34.1744	27.48
34.1846	27.79
34.1947	28.23
34.2049	27.74
34.2151	27.74
34.2252	28.16
34.2354	27.95
34.2456	27.79
34.2557	27.61
34.2659	27.52
34.2761	26.86
34.2862	27.82
34.2964	27.52
34.3066	27.15
34.3167	27.55
34.3269	27.37
34.337	26.85
34.3472	27.21
34.3574	26.95
34.3675	27.61
34.3777	27.45
34.3879	27.72
34.398	27.25
34.4082	26.46
34.4184	27.30
34.4285	26.08
34.4387	26.91
34.4489	25.80
34.459	27.27
34.4692	26.67
34.4793	26.52
34.4895	26.85
34.4997	27.41
34.5098	27.49
34.52	27.70
34.5302	26.51
34.5403	26.68
34.5505	26.88
34.5607	26.55
34.5708	26.71
34.581	27.29
34.5912	26.59
34.6013	27.29
34.6115	26.87
34.6217	27.17
34.6318	26.60
34.642	26.41
34.6521	26.64
34.6623	25.91
34.6725	26.65
34.6826	26.49
34.6928	27.06
34.703	26.65
34.7131	26.76
34.7233	26.65
34.7335	26.34
34.7436	26.27
34.7538	26.51
34.764	26.37
34.7741	26.93
34.7843	27.12
34.7944	26.40
34.8046	26.34
34.8148	26.59
34.8249	26.70
34.8351	26.13
34.8453	25.73
34.8554	26.01
34.8656	26.09
34.8758	25.77
34.8859	26.50
34.8961	26.24
34.9063	27.05
34.9164	25.70
34.9266	26.66
34.9367	26.20
34.9469	25.41
34.9571	26.07
34.9672	25.00
34.9774	25.70
34.9876	26.37
34.9977	25.96
35.0079	26.15
35.0181	25.72
35.0282	25.72
35.0384	26.21
35.0486	25.89
35.0587	25.98
35.0689	26.16
35.0791	25.98
35.0892	25.96
35.0994	25.90
35.1095	26.62
35.1197	26.43
35.1299	26.18
35.14	25.81
35.1502	25.95
35.1604	25.90
35.1705	25.34
35.1807	25.60
35.1909	25.57
35.201	26.22
35.2112	25.45
35.2214	26.20
35.2315	25.82
35.2417	25.29
35.2518	25.29
35.262	25.74
35.2722	26.14
35.2823	26.13
35.2925	25.23
35.3027	25.79
35.3128	25.38
35.323	25.43
35.3332	26.57
35.3433	25.40
35.3535	25.60
35.3637	26.09
35.3738	25.30
35.384	25.48
35.3942	25.64
35.4043	24.95
35.4145	24.98
35.4246	25.40
35.4348	25.62
35.445	26.26
35.4551	25.95
35.4653	25.24
35.4755	25.60
35.4856	26.46
35.4958	25.78
35.506	25.18
35.5161	26.05
35.5263	25.05
35.5365	25.53
35.5466	24.86
35.5568	25.34
35.5669	25.04
35.5771	25.65
35.5873	24.66
35.5974	25.87
35.6076	25.45
35.6178	25.03
35.6279	25.32
35.6381	25.45
35.6483	25.53
35.6584	25.56
35.6686	25.32
35.6788	24.91
35.6889	25.52
35.6991	25.24
35.7093	25.02
35.7194	25.23
35.7296	25.49
35.7397	25.46
35.7499	24.89
35.7601	25.16
35.7702	25.54
35.7804	25.24
35.7906	24.30
35.8007	25.01
35.8109	26.01
35.8211	24.87
35.8312	24.54
35.8414	25.20
35.8516	25.35
35.8617	26.01
35.8719	24.32
35.882	25.30
35.8922	25.42
35.9024	25.66
35.9125	24.64
35.9227	25.52
35.9329	25.94
35.943	25.73
35.9532	25.09
35.9634	25.22
35.9735	25.38
35.9837	25.59
35.9939	25.15
36.004	25.43
36.0142	24.88
36.0244	24.85
36.0345	25.20
36.0447	25.61
36.0548	25.02
36.065	24.89
36.0752	25.29
36.0853	24.85
36.0955	25.74
36.1057	24.96
36.1158	25.67
36.126	25.27
36.1362	26.03
36.1463	24.76
36.1565	25.07
36.1667	25.05
36.1768	25.36
36.187	25.16
36.1971	25.05
36.2073	25.29
36.2175	26.07
36.2276	25.25
36.2378	25.18
36.248	25.51
36.2581	25.32
36.2683	25.41
36.2785	25.02
36.2886	25.67
36.2988	25.44
36.309	25.79
36.3191	25.23
36.3293	25.18
36.3395	25.67
36.3496	25.67
36.3598	25.29
36.3699	25.51
36.3801	25.27
36.3903	25.20
36.4004	25.41
36.4106	24.63
36.4208	25.62
36.4309	24.89
36.4411	25.21
36.4513	25.16
36.4614	25.10
36.4716	25.67
36.4818	25.22
36.4919	25.31
36.5021	25.74
36.5122	25.76
36.5224	25.24
36.5326	24.68
36.5427	25.14
36.5529	25.37
36.5631	25.66
36.5732	24.71
36.5834	25.29
36.5936	25.20
36.6037	25.23
36.6139	25.20
36.6241	25.15
36.6342	26.20
36.6444	25.37
36.6546	25.97
36.6647	25.05
36.6749	25.71
36.685	25.59
36.6952	25.43
36.7054	25.59
36.7155	25.54
36.7257	25.51
36.7359	25.71
36.746	25.74
36.7562	25.59
36.7664	24.93
36.7765	25.42
36.7867	26.59
36.7969	26.08
36.807	25.92
36.8172	25.99
36.8273	26.08
36.8375	25.39
36.8477	27.04
36.8578	25.80
36.868	25.77
36.8782	26.13
36.8883	25.59
36.8985	25.57
36.9087	26.30
36.9188	26.11
36.929	25.66
36.9392	25.26
36.9493	25.56
36.9595	25.88
36.9696	26.07
36.9798	26.90
36.99	26.10
37.0001	26.01
37.0103	26.43
37.0205	26.24
37.0306	26.12
37.0408	26.29
37.051	26.56
37.0611	26.16
37.0713	26.29
37.0815	26.44
37.0916	26.62
37.1018	26.30
37.112	26.70
37.1221	25.90
37.1323	26.94
37.1424	26.66
37.1526	25.87
37.1628	26.28
37.1729	26.55
37.1831	26.55
37.1933	26.05
37.2034	26.27
37.2136	26.27
37.2238	26.76
37.2339	26.67
37.2441	26.46
37.2543	26.53
37.2644	26.37
37.2746	26.05
37.2847	26.41
37.2949	26.62
37.3051	26.43
37.3152	26.30
37.3254	26.74
37.3356	26.79
37.3457	26.84
37.3559	26.68
37.3661	27.18
37.3762	27.04
37.3864	25.83
37.3966	26.46
37.4067	26.48
37.4169	27.28
37.4271	27.57
37.4372	26.32
37.4474	27.15
37.4575	27.95
37.4677	26.68
37.4779	27.67
37.488	26.54
37.4982	27.69
37.5084	27.35
37.5185	27.09
37.5287	27.19
37.5389	27.71
37.549	27.72
37.5592	26.96
37.5694	27.96
37.5795	27.78
37.5897	27.65
37.5998	27.73
37.61	27.07
37.6202	27.75
37.6303	27.49
37.6405	27.16
37.6507	28.39
37.6608	27.98
37.671	27.62
37.6812	27.35
37.6913	28.01
37.7015	28.26
37.7117	27.32
37.7218	27.93
37.732	28.43
37.7422	28.09
37.7523	28.45
37.7625	27.65
37.7726	28.62
37.7828	27.46
37.793	28.03
37.8031	28.43
37.8133	28.17
37.8235	28.26
37.8336	28.74
37.8438	28.87
37.854	28.34
37.8641	28.40
37.8743	28.68
37.8845	29.10
37.8946	28.35
37.9048	28.47
37.9149	28.44
37.9251	28.25
37.9353	28.97
37.9454	28.24
37.9556	28.86
37.9658	28.29
37.9759	29.64
37.9861	28.42
37.9963	29.24
38.0064	28.48
38.0166	28.46
38.0268	29.51
38.0369	29.96
38.0471	29.02
38.0573	29.29
38.0674	28.62
38.0776	29.02
38.0877	29.23
38.0979	30.04
38.1081	28.62
38.1182	29.72
38.1284	28.96
38.1386	29.90
38.1487	29.85
38.1589	29.51
38.1691	29.75
38.1792	29.86
38.1894	30.05
38.1996	29.19
38.2097	28.87
38.2199	29.43
38.23	29.70
38.2402	29.38
38.2504	28.82
38.2605	28.91
38.2707	29.80
38.2809	30.18
38.291	29.62
38.3012	29.59
38.3114	29.66
38.3215	29.73
38.3317	29.80
38.3419	29.41
38.352	29.22
38.3622	29.77
38.3724	29.38
38.3825	30.21
38.3927	29.67
38.4028	29.65
38.413	29.61
38.4232	29.70
38.4333	29.71
38.4435	29.59
38.4537	29.73
38.4638	29.59
38.474	28.74
38.4842	28.83
38.4943	30.17
38.5045	29.77
38.5147	29.15
38.5248	29.23
38.535	29.51
38.5451	29.55
38.5553	30.02
38.5655	29.60
38.5756	29.66
38.5858	29.12
38.596	29.57
38.6061	29.66
38.6163	30.09
38.6265	28.78
38.6366	29.60
38.6468	30.05
38.657	29.34
38.6671	29.43
38.6773	29.14
38.6875	29.58
38.6976	29.43
38.7078	29.46
38.7179	29.75
38.7281	29.58
38.7383	29.48
38.7484	29.59
38.7586	29.10
38.7688	28.77
38.7789	29.16
38.7891	29.31
38.7993	28.56
38.8094	28.23
38.8196	29.16
38.8298	28.99
38.8399	29.34
38.8501	28.69
38.8602	29.29
38.8704	29.16
38.8806	28.07
38.8907	28.98
38.9009	28.63
38.9111	28.29
38.9212	29.88
38.9314	28.37
38.9416	28.21
38.9517	28.77
38.9619	28.16
38.9721	28.85
38.9822	28.87
38.9924	28.49
39.0025	29.05
39.0127	28.56
39.0229	27.96
39.033	28.87
39.0432	28.52
39.0534	28.27
39.0635	28.02
39.0737	28.21
39.0839	28.60
39.094	28.24
39.1042	27.71
39.1144	27.70
39.1245	27.74
39.1347	27.99
39.1449	28.59
39.155	26.87
39.1652	27.48
39.1753	27.95
39.1855	27.32
39.1957	27.96
39.2058	27.15
39.216	27.84
39.2262	27.99
39.2363	27.57
39.2465	27.56
39.2567	26.85
39.2668	26.60
39.277	27.50
39.2872	27.45
39.2973	28.35
39.3075	27.12
39.3176	27.55
39.3278	26.71
39.338	26.77
39.3481	28.20
39.3583	26.90
39.3685	26.10
39.3786	27.80
39.3888	27.04
39.399	27.02
39.4091	27.37
39.4193	27.10
39.4295	26.68
39.4396	27.10
39.4498	26.47
39.46	26.71
39.4701	27.27
39.4803	26.90
39.4904	26.37
39.5006	26.65
39.5108	26.50
39.5209	25.72
39.5311	26.43
39.5413	26.53
39.5514	26.95
39.5616	27.35
39.5718	26.38
39.5819	25.35
39.5921	26.21
39.6023	26.57
39.6124	25.87
39.6226	26.67
39.6327	26.12
39.6429	26.55
39.6531	25.77
39.6632	26.16
39.6734	25.91
39.6836	26.10
39.6937	25.09
39.7039	25.76
39.7141	26.13
39.7242	25.51
39.7344	26.27
39.7446	25.97
39.7547	25.72
39.7649	26.02
39.7751	26.25
39.7852	26.20
39.7954	26.18
39.8055	25.36
39.8157	25.52
39.8259	25.89
39.836	26.07
39.8462	25.49
39.8564	26.16
39.8665	25.52
39.8767	26.01
39.8869	25.13
39.897	24.88
39.9072	25.42
39.9174	25.33
39.9275	25.29
39.9377	25.99
39.9478	26.00
39.958	25.71
39.9682	25.59
39.9783	25.39
39.9885	24.88
39.9987	25.82
40.0088	25.33
