5.0023	47.46
5.0125	46.30
5.0226	46.92
5.0328	46.21
5.043	47.01
5.0531	45.17
5.0633	45.04
5.0735	43.77
5.0836	43.77
5.0938	42.18
5.1039	42.55
5.1141	41.27
5.1243	40.64
5.1344	40.34
5.1446	39.10
5.1548	38.50
5.1649	38.68
5.1751	38.21
5.1853	38.04
5.1954	36.01
5.2056	36.93
5.2158	35.62
5.2259	36.43
5.2361	36.56
5.2462	34.76
5.2564	34.73
5.2666	33.46
5.2767	33.41
5.2869	33.85
5.2971	32.49
5.3072	33.06
5.3174	33.45
5.3276	33.24
5.3377	32.25
5.3479	30.91
5.3581	30.88
5.3682	30.82
5.3784	30.88
5.3886	30.47
5.3987	30.37
5.4089	29.85
5.419	29.80
5.4292	28.71
5.4394	29.07
5.4495	27.84
5.4597	27.92
5.4699	28.63
5.48	27.99
5.4902	27.13
5.5004	27.04
5.5105	26.43
5.5207	26.76
5.5309	27.37
5.541	26.76
5.5512	25.63
5.5613	26.42
5.5715	26.09
5.5817	24.54
5.5918	26.02
5.602	24.60
5.6122	25.48
5.6223	24.30
5.6325	25.02
5.6427	24.40
5.6528	24.27
5.663	23.74
5.6732	24.43
5.6833	24.23
5.6935	24.12
5.7036	23.61
5.7138	24.16
5.724	23.57
5.7341	23.20
5.7443	23.23
5.7545	23.17
5.7646	22.85
5.7748	23.24
5.785	23.05
5.7951	22.18
5.8053	22.53
5.8155	22.15
5.8256	21.62
5.8358	22.49
5.846	22.12
5.8561	22.85
5.8663	22.48
5.8764	23.30
5.8866	21.99
5.8968	22.26
5.9069	22.64
5.9171	21.27
5.9273	21.66
5.9374	22.09
5.9476	22.35
5.9578	21.48
5.9679	21.45
5.9781	21.98
5.9883	22.09
5.9984	21.57
6.0086	21.96
6.0187	22.41
6.0289	21.29
6.0391	21.45
6.0492	22.33
6.0594	21.28
6.0696	21.54
6.0797	21.90
6.0899	21.44
6.1001	22.04
6.1102	21.26
6.1204	20.73
6.1306	21.49
6.1407	21.65
6.1509	21.04
6.1611	22.26
6.1712	21.07
6.1814	21.07
6.1915	21.80
6.2017	20.32
6.2119	20.73
6.222	22.10
6.2322	20.73
6.2424	21.49
6.2525	21.46
6.2627	20.93
6.2729	20.66
6.283	21.42
6.2932	21.50
6.3034	21.43
6.3135	21.21
6.3237	21.16
6.3338	20.77
6.344	21.23
6.3542	21.14
6.3643	20.62
6.3745	21.06
6.3847	21.45
6.3948	21.15
6.405	20.85
6.4152	20.73
6.4253	20.84
6.4355	21.01
6.4457	20.90
6.4558	20.84
6.466	21.52
6.4762	21.23
6.4863	20.40
6.4965	21.70
6.5066	21.25
6.5168	21.58
6.527	20.87
6.5371	20.41
6.5473	22.07
6.5575	21.31
6.5676	21.45
6.5778	21.57
6.588	21.31
6.5981	20.83
6.6083	21.65
6.6185	20.43
6.6286	20.77
6.6388	21.84
6.6489	20.88
6.6591	21.65
6.6693	21.54
6.6794	21.37
6.6896	20.59
6.6998	21.04
6.7099	21.60
6.7201	21.28
6.7303	21.48
6.7404	20.98
6.7506	21.32
6.7608	20.74
6.7709	21.21
6.7811	21.02
6.7913	21.10
6.8014	21.54
6.8116	20.15
6.8217	21.27
6.8319	20.42
6.8421	20.57
6.8522	21.21
6.8624	20.53
6.8726	21.09
6.8827	21.04
6.8929	21.91
6.9031	21.12
6.9132	21.54
6.9234	22.23
6.9336	21.05
6.9437	21.67
6.9539	21.85
6.964	21.46
6.9742	21.56
6.9844	21.29
6.9945	21.60
7.0047	21.46
7.0149	21.23
7.025	21.58
7.0352	22.07
7.0454	21.16
7.0555	22.09
7.0657	21.71
7.0759	22.03
7.086	21.10
7.0962	21.52
7.1064	22.21
7.1165	21.43
7.1267	22.42
7.1368	21.54
7.147	21.30
7.1572	22.07
7.1673	21.26
7.1775	21.67
7.1877	21.65
7.1978	22.52
7.208	21.70
7.2182	22.48
7.2283	21.98
7.2385	21.86
7.2487	22.06
7.2588	21.73
7.269	22.13
7.2791	22.21
7.2893	22.23
7.2995	21.84
7.3096	22.09
7.3198	21.68
7.33	21.87
7.3401	22.12
7.3503	21.28
7.3605	21.76
7.3706	22.13
7.3808	21.85
7.391	21.49
7.4011	22.84
7.4113	21.93
7.4215	21.99
7.4316	22.51
7.4418	22.80
7.4519	22.41
7.4621	21.62
7.4723	22.21
7.4824	21.60
7.4926	22.13
7.5028	22.01
7.5129	21.85
7.5231	21.85
7.5333	22.13
7.5434	21.70
7.5536	22.21
7.5638	22.52
7.5739	22.16
7.5841	22.58
7.5942	21.90
7.6044	22.88
7.6146	22.83
7.6247	23.31
7.6349	22.12
7.6451	22.79
7.6552	23.05
7.6654	22.77
7.6756	22.12
7.6857	23.18
7.6959	22.38
7.7061	23.52
7.7162	22.84
7.7264	22.95
7.7365	22.89
7.7467	23.23
7.7569	22.72
7.767	22.49
7.7772	22.99
7.7874	22.96
7.7975	23.02
7.8077	23.59
7.8179	23.43
7.828	22.74
7.8382	23.27
7.8484	23.09
7.8585	23.41
7.8687	23.10
7.8789	22.84
7.889	22.77
7.8992	23.41
7.9093	23.09
7.9195	23.27
7.9297	22.95
7.9398	23.18
7.95	23.37
7.9602	23.05
7.9703	23.27
7.9805	23.62
7.9907	22.70
8.0008	23.53
8.011	23.45
8.0212	23.12
8.0313	22.14
8.0415	23.73
8.0516	23.11
8.0618	22.55
8.072	23.52
8.0821	23.97
8.0923	23.89
8.1025	23.89
8.1126	24.55
8.1228	23.23
8.133	23.02
8.1431	23.98
8.1533	23.43
8.1635	23.97
8.1736	24.26
8.1838	23.41
8.194	23.49
8.2041	23.57
8.2143	23.68
8.2244	24.20
8.2346	23.85
8.2448	23.80
8.2549	24.54
8.2651	24.18
8.2753	24.07
8.2854	24.07
8.2956	24.10
8.3058	22.82
8.3159	24.30
8.3261	23.58
8.3363	24.08
8.3464	23.84
8.3566	23.99
8.3667	23.24
8.3769	24.23
8.3871	24.20
8.3972	23.63
8.4074	24.23
8.4176	23.71
8.4277	23.77
8.4379	24.68
8.4481	24.49
8.4582	24.46
8.4684	24.70
8.4786	24.28
8.4887	25.15
8.4989	23.71
8.5091	24.59
8.5192	24.62
8.5294	24.91
8.5395	24.82
8.5497	24.51
8.5599	24.77
8.57	25.03
8.5802	24.46
8.5904	24.37
8.6005	25.42
8.6107	24.22
8.6209	25.17
8.631	25.11
8.6412	24.65
8.6514	24.64
8.6615	24.67
8.6717	24.74
8.6818	25.49
8.692	24.69
8.7022	24.38
8.7123	24.90
8.7225	25.86
8.7327	24.64
8.7428	25.29
8.753	25.71
8.7632	25.07
8.7733	26.07
8.7835	25.51
8.7937	25.82
8.8038	25.84
8.814	25.73
8.8242	25.49
8.8343	25.46
8.8445	24.99
8.8546	25.20
8.8648	24.87
8.875	26.07
8.8851	25.02
8.8953	25.70
8.9055	25.69
8.9156	24.68
8.9258	24.86
8.936	26.08
8.9461	25.85
8.9563	25.50
8.9665	26.24
8.9766	25.30
8.9868	26.95
8.9969	26.22
9.0071	25.74
9.0173	26.06
9.0274	25.70
9.0376	25.24
9.0478	25.78
9.0579	26.28
9.0681	25.99
9.0783	26.15
9.0884	25.57
9.0986	26.51
9.1088	26.29
9.1189	25.49
9.1291	25.99
9.1393	26.10
9.1494	26.92
9.1596	26.63
9.1697	26.82
9.1799	26.62
9.1901	25.90
9.2002	26.60
9.2104	26.04
9.2206	26.27
9.2307	26.64
9.2409	26.13
9.2511	26.33
9.2612	26.63
9.2714	27.09
9.2816	26.24
9.2917	26.64
9.3019	26.93
9.312	26.34
9.3222	26.58
9.3324	27.63
9.3425	27.77
9.3527	27.73
9.3629	27.84
9.373	27.89
9.3832	28.54
9.3934	28.42
9.4035	27.35
9.4137	28.13
9.4239	27.21
9.434	28.04
9.4442	27.88
9.4544	28.40
9.4645	27.45
9.4747	27.18
9.4848	26.88
9.495	28.04
9.5052	26.56
9.5153	27.96
9.5255	26.49
9.5357	26.82
9.5458	27.62
9.556	26.24
9.5662	27.59
9.5763	27.76
9.5865	26.68
9.5967	27.21
9.6068	27.70
9.617	27.43
9.6271	27.55
9.6373	27.38
9.6475	27.80
9.6576	26.91
9.6678	27.80
9.678	27.65
9.6881	27.45
9.6983	27.35
9.7085	27.32
9.7186	27.32
9.7288	27.30
9.739	27.66
9.7491	27.84
9.7593	26.99
9.7694	28.23
9.7796	28.32
9.7898	27.88
9.7999	28.85
9.8101	27.40
9.8203	27.84
9.8304	27.65
9.8406	27.98
9.8508	28.21
9.8609	27.54
9.8711	27.82
9.8813	28.12
9.8914	27.57
9.9016	28.02
9.9118	29.08
9.9219	28.20
9.9321	27.70
9.9422	28.34
9.9524	27.03
9.9626	28.09
9.9727	28.38
9.9829	27.99
9.9931	28.13
10.0032	28.30
10.0134	28.49
10.0236	28.15
10.0337	29.08
10.0439	28.75
10.0541	28.74
10.0642	27.73
10.0744	27.90
10.0845	29.12
10.0947	28.82
10.1049	29.22
10.115	28.98
10.1252	29.37
10.1354	29.53
10.1455	28.77
10.1557	29.34
10.1659	29.17
10.176	28.81
10.1862	28.65
10.1964	28.09
10.2065	29.76
10.2167	28.77
10.2269	29.43
10.237	29.17
10.2472	28.35
10.2573	29.98
10.2675	29.09
10.2777	29.00
10.2878	29.29
10.298	28.71
10.3082	28.71
10.3183	29.91
10.3285	28.19
10.3387	28.72
10.3488	29.16
10.359	29.57
10.3692	29.58
10.3793	29.67
10.3895	30.42
10.3996	30.68
10.4098	29.43
10.42	29.54
10.4301	29.34
10.4403	29.53
10.4505	29.94
10.4606	28.98
10.4708	29.38
10.481	30.35
10.4911	29.34
10.5013	29.39
10.5115	29.45
10.5216	30.55
10.5318	30.10
10.542	30.24
10.5521	30.44
10.5623	29.62
10.5724	29.93
10.5826	30.20
10.5928	30.80
10.6029	30.07
10.6131	30.16
10.6233	30.31
10.6334	30.77
10.6436	30.27
10.6538	29.30
10.6639	29.99
10.6741	30.26
10.6843	30.16
10.6944	30.07
10.7046	30.79
10.7147	31.51
10.7249	30.65
10.7351	30.62
10.7452	30.15
10.7554	31.66
10.7656	30.64
10.7757	29.65
10.7859	31.59
10.7961	29.89
10.8062	30.24
10.8164	31.08
10.8266	30.81
10.8367	30.76
10.8469	31.05
10.8571	30.80
10.8672	30.74
10.8774	31.90
10.8875	32.06
10.8977	31.73
10.9079	31.01
10.918	31.42
10.9282	31.44
10.9384	30.60
10.9485	31.68
10.9587	31.62
10.9689	31.70
10.979	31.12
10.9892	31.33
10.9994	32.13
11.0095	31.46
11.0197	31.59
11.0298	31.34
11.04	32.70
11.0502	31.87
11.0603	31.65
11.0705	31.98
11.0807	32.12
11.0908	31.60
11.101	32.18
11.1112	31.81
11.1213	31.93
11.1315	32.27
11.1417	32.53
11.1518	31.74
11.162	32.03
11.1722	31.88
11.1823	32.05
11.1925	32.88
11.2026	32.21
11.2128	31.84
11.223	31.65
11.2331	32.32
11.2433	32.34
11.2535	32.11
11.2636	33.21
11.2738	32.96
11.284	33.12
11.2941	32.68
11.3043	32.45
11.3145	33.14
11.3246	32.73
11.3348	32.59
11.3449	32.96
11.3551	33.54
11.3653	33.29
11.3754	32.61
11.3856	32.81
11.3958	33.59
11.4059	32.87
11.4161	33.40
11.4263	33.07
11.4364	33.96
11.4466	34.16
11.4568	33.47
11.4669	34.09
11.4771	32.83
11.4873	34.57
11.4974	33.73
11.5076	35.04
11.5177	33.44
11.5279	33.93
11.5381	33.80
11.5482	34.21
11.5584	34.45
11.5686	33.56
11.5787	34.07
11.5889	34.49
11.5991	34.05
11.6092	33.54
11.6194	33.82
11.6296	33.82
11.6397	33.74
11.6499	34.41
11.66	35.24
11.6702	34.19
11.6804	35.00
11.6905	34.08
11.7007	34.57
11.7109	35.13
11.721	33.85
11.7312	33.77
11.7414	34.45
11.7515	35.69
11.7617	34.84
11.7719	34.53
11.782	34.25
11.7922	35.18
11.8023	35.38
11.8125	35.40
11.8227	35.09
11.8328	35.73
11.843	35.44
11.8532	34.82
11.8633	35.20
11.8735	35.99
11.8837	35.05
11.8938	35.62
11.904	35.78
11.9142	34.71
11.9243	36.45
11.9345	35.55
11.9447	35.38
11.9548	35.30
11.965	35.71
11.9751	35.85
11.9853	36.19
11.9955	36.64
12.0056	36.40
12.0158	34.72
12.026	35.83
12.0361	36.27
12.0463	36.58
12.0565	36.07
12.0666	36.60
12.0768	36.95
12.087	36.53
12.0971	37.09
12.1073	36.96
12.1174	36.79
12.1276	37.12
12.1378	36.55
12.1479	37.28
12.1581	37.03
12.1683	36.75
12.1784	37.29
12.1886	37.26
12.1988	37.23
12.2089	37.56
12.2191	36.41
12.2293	37.22
12.2394	38.02
12.2496	37.09
12.2598	37.05
12.2699	37.12
12.2801	37.45
12.2902	37.97
12.3004	37.32
12.3106	38.48
12.3207	37.04
12.3309	37.95
12.3411	37.70
12.3512	37.82
12.3614	38.37
12.3716	37.57
12.3817	38.66
12.3919	38.79
12.4021	38.24
12.4122	38.68
12.4224	39.17
12.4325	37.76
12.4427	38.62
12.4529	38.20
12.463	38.69
12.4732	39.14
12.4834	38.27
12.4935	38.98
12.5037	39.15
12.5139	39.27
12.524	39.13
12.5342	39.94
12.5444	39.55
12.5545	39.49
12.5647	38.22
12.5749	40.12
12.585	39.04
12.5952	39.42
12.6053	39.32
12.6155	39.67
12.6257	39.38
12.6358	39.47
12.646	39.88
12.6562	40.57
12.6663	40.13
12.6765	41.13
12.6867	40.37
12.6968	40.88
12.707	40.24
12.7172	39.97
12.7273	40.93
12.7375	40.63
12.7476	41.48
12.7578	40.57
12.768	40.98
12.7781	41.34
12.7883	40.58
12.7985	41.12
12.8086	41.02
12.8188	41.71
12.829	40.57
12.8391	40.50
12.8493	40.51
12.8595	41.43
12.8696	41.05
12.8798	41.34
12.89	41.41
12.9001	42.20
12.9103	42.07
12.9204	41.67
12.9306	42.87
12.9408	42.29
12.9509	42.16
12.9611	41.99
12.9713	42.99
12.9814	42.44
12.9916	42.87
13.0018	41.97
13.0119	42.48
13.0221	43.62
13.0323	42.79
13.0424	42.82
13.0526	42.75
13.0627	42.71
13.0729	43.37
13.0831	43.68
13.0932	43.38
13.1034	44.45
13.1136	43.76
13.1237	43.24
13.1339	43.15
13.1441	43.65
13.1542	43.60
13.1644	45.16
13.1746	43.25
13.1847	44.55
13.1949	44.00
13.2051	43.82
13.2152	43.54
13.2254	44.61
13.2355	45.57
13.2457	44.55
13.2559	45.04
13.266	44.84
13.2762	45.34
13.2864	44.48
13.2965	45.65
13.3067	45.23
13.3169	45.22
13.327	45.73
13.3372	45.35
13.3474	45.27
13.3575	44.59
13.3677	45.71
13.3778	45.60
13.388	45.48
13.3982	46.70
13.4083	46.46
13.4185	46.44
13.4287	47.21
13.4388	45.56
13.449	45.34
13.4592	46.66
13.4693	45.85
13.4795	46.26
13.4897	47.00
13.4998	47.38
13.51	47.22
13.5201	47.22
13.5303	46.81
13.5405	47.24
13.5506	47.57
13.5608	48.45
13.571	47.14
13.5811	48.12
13.5913	47.98
13.6015	47.05
13.6116	48.63
13.6218	47.85
13.632	48.99
13.6421	49.14
13.6523	48.47
13.6625	48.31
13.6726	49.70
13.6828	47.80
13.6929	48.61
13.7031	48.57
13.7133	49.90
13.7234	48.78
13.7336	49.50
13.7438	49.62
13.7539	49.26
13.7641	49.50
13.7743	49.25
13.7844	49.46
13.7946	50.29
13.8048	50.36
13.8149	50.16
13.8251	50.65
13.8352	49.99
13.8454	49.72
13.8556	50.52
13.8657	51.57
13.8759	50.76
13.8861	50.88
13.8962	50.55
13.9064	50.98
13.9166	51.66
13.9267	51.71
13.9369	51.34
13.9471	52.04
13.9572	51.74
13.9674	50.04
13.9776	51.77
13.9877	51.80
13.9979	51.92
14.008	52.60
14.0182	51.93
14.0284	52.68
14.0385	54.06
14.0487	52.09
14.0589	53.49
14.069	53.54
14.0792	52.70
14.0894	52.43
14.0995	53.15
14.1097	53.46
14.1199	52.90
14.13	54.60
14.1402	52.77
14.1503	54.07
14.1605	55.30
14.1707	54.23
14.1808	54.12
14.191	54.17
14.2012	54.87
14.2113	55.71
14.2215	55.47
14.2317	55.08
14.2418	54.68
14.252	54.88
14.2622	55.10
14.2723	55.09
14.2825	56.59
14.2927	56.12
14.3028	56.65
14.313	55.38
14.3231	55.37
14.3333	55.63
14.3435	57.58
14.3536	56.49
14.3638	55.83
14.374	56.91
14.3841	56.39
14.3943	57.05
14.4045	55.77
14.4146	56.58
14.4248	57.52
14.435	57.34
14.4451	57.52
14.4553	59.26
14.4654	57.26
14.4756	58.06
14.4858	58.34
14.4959	58.11
14.5061	57.88
14.5163	58.37
14.5264	58.38
14.5366	59.08
14.5468	59.72
14.5569	59.24
14.5671	59.71
14.5773	59.72
14.5874	59.21
14.5976	60.29
14.6078	60.71
14.6179	59.86
14.6281	60.12
14.6382	59.46
14.6484	60.82
14.6586	60.71
14.6687	61.13
14.6789	61.54
14.6891	61.20
14.6992	62.18
14.7094	60.66
14.7196	61.36
14.7297	61.60
14.7399	61.81
14.7501	61.45
14.7602	62.66
14.7704	62.52
14.7805	62.74
14.7907	61.95
14.8009	63.05
14.811	62.45
14.8212	63.12
14.8314	63.81
14.8415	63.03
14.8517	62.39
14.8619	64.01
14.872	63.37
14.8822	63.32
14.8924	64.46
14.9025	62.97
14.9127	63.69
14.9229	66.06
14.933	63.84
14.9432	63.76
14.9533	64.79
14.9635	64.36
14.9737	64.55
14.9838	67.07
14.994	66.73
15.0042	65.09
15.0143	65.88
15.0245	66.92
15.0347	66.01
15.0448	66.91
15.055	66.02
15.0652	66.33
15.0753	66.52
15.0855	67.55
15.0956	66.60
15.1058	67.90
15.116	67.96
15.1261	67.07
15.1363	68.10
15.1465	68.04
15.1566	67.21
15.1668	68.63
15.177	67.77
15.1871	68.93
15.1973	68.37
15.2075	68.33
15.2176	68.99
15.2278	69.12
15.238	70.04
15.2481	69.52
15.2583	70.74
15.2684	69.26
15.2786	70.02
15.2888	70.76
15.2989	70.63
15.3091	70.98
15.3193	69.96
15.3294	69.46
15.3396	69.34
15.3498	71.33
15.3599	70.86
15.3701	70.48
15.3803	71.58
15.3904	71.65
15.4006	71.88
15.4107	72.31
15.4209	71.33
15.4311	72.98
15.4412	73.12
15.4514	72.73
15.4616	73.02
15.4717	74.04
15.4819	74.78
15.4921	73.48
15.5022	75.62
15.5124	73.53
15.5226	74.04
15.5327	74.49
15.5429	74.34
15.553	74.99
15.5632	75.32
15.5734	75.64
15.5835	75.84
15.5937	74.87
15.6039	75.72
15.614	76.12
15.6242	77.25
15.6344	77.62
15.6445	76.70
15.6547	75.65
15.6649	77.32
15.675	75.83
15.6852	78.18
15.6954	76.39
15.7055	77.32
15.7157	76.93
15.7258	78.16
15.736	78.55
15.7462	78.93
15.7563	78.19
15.7665	79.28
15.7767	78.46
15.7868	78.85
15.797	79.58
15.8072	79.59
15.8173	78.40
15.8275	79.93
15.8377	81.73
15.8478	81.35
15.858	79.76
15.8681	80.57
15.8783	80.27
15.8885	81.21
15.8986	80.16
15.9088	81.62
15.919	80.97
15.9291	83.45
15.9393	82.84
15.9495	82.45
15.9596	81.95
15.9698	82.35
15.98	82.66
15.9901	84.57
16.0003	83.08
16.0105	84.21
16.0206	84.41
16.0308	83.54
16.0409	83.25
16.0511	83.87
16.0613	84.01
16.0714	83.22
16.0816	85.26
16.0918	85.65
16.1019	86.05
16.1121	84.55
16.1223	86.63
16.1324	86.62
16.1426	86.26
16.1528	85.99
16.1629	86.45
16.1731	87.45
16.1832	86.68
16.1934	86.76
16.2036	86.65
16.2137	87.16
16.2239	86.88
16.2341	88.82
16.2442	89.10
16.2544	89.16
16.2646	90.29
16.2747	89.40
16.2849	89.14
16.2951	89.93
16.3052	89.32
16.3154	89.95
16.3256	89.95
16.3357	89.75
16.3459	91.41
16.356	92.04
16.3662	91.26
16.3764	90.53
16.3865	92.22
16.3967	90.95
16.4069	91.82
16.417	92.59
16.4272	94.21
16.4374	92.85
16.4475	91.62
16.4577	91.95
16.4679	92.96
16.478	93.21
16.4882	94.30
16.4983	92.44
16.5085	94.86
16.5187	93.85
16.5288	95.12
16.539	95.56
16.5492	95.53
16.5593	95.68
16.5695	95.21
16.5797	97.72
16.5898	94.41
16.6	96.55
16.6102	95.64
16.6203	94.45
16.6305	98.15
16.6407	97.71
16.6508	96.59
16.661	98.01
16.6711	96.88
16.6813	97.96
16.6915	100.21
16.7016	99.03
16.7118	100.30
16.722	99.04
16.7321	101.40
16.7423	101.12
16.7525	99.72
16.7626	98.79
16.7728	101.55
16.783	100.89
16.7931	100.45
16.8033	101.10
16.8134	100.55
16.8236	101.98
16.8338	102.08
16.8439	100.81
16.8541	103.45
16.8643	102.09
16.8744	102.93
16.8846	103.57
16.8948	103.76
16.9049	103.12
16.9151	103.64
16.9253	103.07
16.9354	103.51
16.9456	104.41
16.9558	105.16
16.9659	104.85
16.9761	103.52
16.9862	105.54
16.9964	104.54
17.0066	104.90
17.0167	105.99
17.0269	106.09
17.0371	106.34
17.0472	105.93
17.0574	107.48
17.0676	106.01
17.0777	106.02
17.0879	108.77
17.0981	104.74
17.1082	107.26
17.1184	106.59
17.1285	108.30
17.1387	107.67
17.1489	107.70
17.159	107.55
17.1692	107.43
17.1794	111.35
17.1895	110.02
17.1997	108.81
17.2099	109.89
17.22	108.77
17.2302	109.20
17.2404	109.88
17.2505	110.21
17.2607	109.68
17.2709	112.35
17.281	111.38
17.2912	112.83
17.3013	112.86
17.3115	111.95
17.3217	112.85
17.3318	113.25
17.342	113.72
17.3522	113.87
17.3623	113.49
17.3725	114.27
17.3827	114.84
17.3928	114.40
17.403	113.89
17.4132	116.43
17.4233	114.93
17.4335	114.88
17.4436	115.84
17.4538	115.57
17.464	115.56
17.4741	117.02
17.4843	118.43
17.4945	119.49
17.5046	118.91
17.5148	118.95
17.525	119.46
17.5351	120.87
17.5453	122.64
17.5555	121.46
17.5656	121.86
17.5758	123.66
17.5859	121.77
17.5961	121.62
17.6063	122.44
17.6164	121.63
17.6266	122.82
17.6368	124.77
17.6469	125.01
17.6571	124.05
17.6673	125.43
17.6774	125.99
17.6876	128.26
17.6978	126.65
17.7079	128.20
17.7181	129.24
17.7283	129.98
17.7384	128.46
17.7486	128.88
17.7587	131.60
17.7689	130.10
17.7791	129.39
17.7892	132.08
17.7994	133.63
17.8096	133.83
17.8197	134.54
17.8299	136.13
17.8401	135.15
17.8502	134.98
17.8604	136.43
17.8706	138.81
17.8807	140.40
17.8909	138.61
17.901	140.65
17.9112	141.20
17.9214	141.84
17.9315	139.84
17.9417	145.06
17.9519	145.21
17.962	146.55
17.9722	147.24
17.9824	150.09
17.9925	149.80
18.0027	151.82
18.0129	153.00
18.023	154.07
18.0332	155.75
18.0434	156.10
18.0535	157.53
18.0637	157.88
18.0738	157.52
18.084	160.16
18.0942	165.03
18.1043	163.55
18.1145	164.87
18.1247	168.10
18.1348	169.84
18.145	170.32
18.1552	173.58
18.1653	175.12
18.1755	176.54
18.1857	180.73
18.1958	181.54
18.206	180.86
18.2161	184.09
18.2263	184.05
18.2365	188.13
18.2466	193.82
18.2568	193.40
18.267	193.87
18.2771	198.34
18.2873	201.59
18.2975	198.07
18.3076	206.06
18.3178	206.13
18.328	206.35
18.3381	211.43
18.3483	213.56
18.3585	214.58
18.3686	216.46
18.3788	216.94
18.3889	217.94
18.3991	222.30
18.4093	223.48
18.4194	224.49
18.4296	226.24
18.4398	228.44
18.4499	227.94
18.4601	231.15
18.4703	229.98
18.4804	230.34
18.4906	234.98
18.5008	234.39
18.5109	232.88
18.5211	232.41
18.5312	233.63
18.5414	231.33
18.5516	237.43
18.5617	234.84
18.5719	231.81
18.5821	234.41
18.5922	231.93
18.6024	231.12
18.6126	231.14
18.6227	228.48
18.6329	227.82
18.6431	229.35
18.6532	222.97
18.6634	224.02
18.6736	222.71
18.6837	221.15
18.6939	216.82
18.704	218.27
18.7142	216.09
18.7244	213.84
18.7345	213.65
18.7447	211.67
18.7549	207.37
18.765	205.75
18.7752	207.44
18.7854	201.24
18.7955	201.95
18.8057	199.34
18.8159	196.05
18.826	193.88
18.8362	193.20
18.8463	190.43
18.8565	188.80
18.8667	188.01
18.8768	185.02
18.887	183.54
18.8972	181.93
18.9073	179.48
18.9175	178.91
18.9277	175.40
18.9378	174.77
18.948	173.45
18.9582	173.04
18.9683	169.59
18.9785	170.49
18.9887	168.99
18.9988	164.92
19.009	165.44
19.0191	164.25
19.0293	162.62
19.0395	161.85
19.0496	159.84
19.0598	157.70
19.07	158.65
19.0801	158.85
19.0903	155.13
19.1005	156.32
19.1106	153.30
19.1208	151.99
19.131	152.07
19.1411	151.63
19.1513	148.63
19.1614	148.86
19.1716	149.23
19.1818	147.04
19.1919	147.50
19.2021	146.82
19.2123	143.35
19.2224	144.57
19.2326	144.32
19.2428	142.35
19.2529	142.68
19.2631	143.20
19.2733	141.98
19.2834	140.96
19.2936	140.91
19.3038	138.65
19.3139	139.09
19.3241	137.23
19.3342	137.80
19.3444	138.24
19.3546	138.18
19.3647	136.31
19.3749	136.79
19.3851	137.50
19.3952	134.69
19.4054	137.69
19.4156	137.34
19.4257	134.09
19.4359	135.25
19.4461	135.41
19.4562	134.68
19.4664	134.23
19.4765	134.42
19.4867	134.20
19.4969	132.74
19.507	131.82
19.5172	131.23
19.5274	132.87
19.5375	132.40
19.5477	132.84
19.5579	131.31
19.568	131.51
19.5782	132.30
19.5884	132.54
19.5985	129.21
19.6087	129.38
19.6188	131.84
19.629	131.10
19.6392	130.37
19.6493	129.76
19.6595	130.03
19.6697	129.38
19.6798	130.46
19.69	130.32
19.7002	129.67
19.7103	129.50
19.7205	130.24
19.7307	127.87
19.7408	131.37
19.751	128.99
19.7612	127.55
19.7713	129.63
19.7815	129.79
19.7916	127.88
19.8018	129.50
19.812	128.51
19.8221	129.63
19.8323	128.86
19.8425	129.66
19.8526	130.72
19.8628	129.07
19.873	130.80
19.8831	130.26
19.8933	130.22
19.9035	129.67
19.9136	131.00
19.9238	130.53
19.9339	130.43
19.9441	129.46
19.9543	129.38
19.9644	131.31
19.9746	128.54
19.9848	129.25
19.9949	128.90
20.0051	130.67
20.0153	132.39
20.0254	131.34
20.0356	130.75
20.0458	131.14
20.0559	129.63
20.0661	132.15
20.0763	132.16
20.0864	132.01
20.0966	130.62
20.1067	130.54
20.1169	131.66
20.1271	131.10
20.1372	132.52
20.1474	133.33
20.1576	130.72
20.1677	132.98
20.1779	133.88
20.1881	133.59
20.1982	133.62
20.2084	134.05
20.2186	133.02
20.2287	133.60
20.2389	133.24
20.249	134.18
20.2592	134.93
20.2694	135.73
20.2795	134.88
20.2897	135.10
20.2999	134.86
20.31	134.71
20.3202	135.87
20.3304	136.10
20.3405	134.40
20.3507	136.47
20.3609	135.87
20.371	132.75
20.3812	136.87
20.3914	134.49
20.4015	135.27
20.4117	135.88
20.4218	136.97
20.432	134.25
20.4422	136.14
20.4523	136.39
20.4625	134.20
20.4727	136.79
20.4828	137.09
20.493	133.97
20.5032	135.91
20.5133	137.62
20.5235	136.24
20.5337	135.07
20.5438	135.80
20.554	134.09
20.5641	133.53
20.5743	135.70
20.5845	135.29
20.5946	132.77
20.6048	134.85
20.615	131.71
20.6251	132.60
20.6353	133.20
20.6455	132.39
20.6556	131.29
20.6658	132.55
20.676	130.75
20.6861	129.85
20.6963	129.99
20.7065	129.10
20.7166	131.48
20.7268	129.73
20.7369	127.60
20.7471	129.02
20.7573	128.87
20.7674	125.87
20.7776	126.48
20.7878	126.47
20.7979	124.98
20.8081	125.73
20.8183	124.43
20.8284	125.27
20.8386	124.95
20.8488	125.01
20.8589	122.79
20.8691	123.47
20.8792	122.85
20.8894	121.93
20.8996	124.83
20.9097	122.77
20.9199	121.40
20.9301	120.93
20.9402	121.37
20.9504	119.54
20.9606	120.69
20.9707	119.43
20.9809	120.27
20.9911	118.88
21.0012	119.48
21.0114	116.99
21.0216	119.26
21.0317	119.13
21.0419	116.82
21.052	118.27
21.0622	118.35
21.0724	116.64
21.0825	116.87
21.0927	116.10
21.1029	114.96
21.113	116.96
21.1232	116.45
21.1334	115.40
21.1435	115.18
21.1537	114.04
21.1639	112.66
21.174	116.07
21.1842	114.41
21.1943	115.58
21.2045	116.05
21.2147	115.50
21.2248	113.13
21.235	116.05
21.2452	114.60
21.2553	114.16
21.2655	114.23
21.2757	114.88
21.2858	112.04
21.296	114.60
21.3062	113.76
21.3163	114.74
21.3265	115.03
21.3366	114.10
21.3468	113.62
21.357	114.18
21.3671	112.49
21.3773	113.79
21.3875	113.55
21.3976	116.16
21.4078	114.43
21.418	115.04
21.4281	115.08
21.4383	114.56
21.4485	116.05
21.4586	114.47
21.4688	113.84
21.479	117.38
21.4891	115.48
21.4993	115.02
21.5094	116.51
21.5196	118.94
21.5298	115.39
21.5399	117.84
21.5501	118.03
21.5603	117.90
21.5704	119.27
21.5806	120.20
21.5908	118.97
21.6009	121.70
21.6111	119.63
21.6213	120.16
21.6314	123.26
21.6416	122.59
21.6517	123.09
21.6619	125.12
21.6721	126.51
21.6822	124.93
21.6924	126.36
21.7026	127.97
21.7127	126.41
21.7229	127.49
21.7331	128.57
21.7432	130.42
21.7534	132.43
21.7636	132.12
21.7737	132.55
21.7839	132.52
21.7941	133.92
21.8042	132.95
21.8144	132.88
21.8245	135.15
21.8347	135.16
21.8449	135.97
21.855	136.68
21.8652	135.65
21.8754	136.18
21.8855	136.75
21.8957	136.91
21.9059	137.18
21.916	138.56
21.9262	135.94
21.9364	139.79
21.9465	139.72
21.9567	139.15
21.9668	140.96
21.977	139.90
21.9872	139.50
21.9973	141.76
22.0075	142.50
22.0177	141.62
22.0278	142.66
22.038	144.38
22.0482	142.63
22.0583	144.21
22.0685	146.10
22.0787	142.89
22.0888	146.59
22.099	145.50
22.1092	143.18
22.1193	147.09
22.1295	148.09
22.1396	146.03
22.1498	146.89
22.16	146.36
22.1701	147.30
22.1803	149.10
22.1905	150.24
22.2006	147.40
22.2108	152.53
22.221	149.68
22.2311	147.27
22.2413	150.84
22.2515	149.21
22.2616	148.17
22.2718	150.07
22.2819	149.23
22.2921	148.59
22.3023	147.61
22.3124	151.95
22.3226	147.73
22.3328	148.20
22.3429	149.74
22.3531	147.15
22.3633	149.63
22.3734	147.76
22.3836	147.04
22.3938	149.47
22.4039	146.85
22.4141	147.40
22.4243	147.77
22.4344	146.71
22.4446	145.18
22.4547	146.99
22.4649	144.46
22.4751	144.96
22.4852	143.40
22.4954	143.21
22.5056	140.14
22.5157	141.38
22.5259	140.37
22.5361	139.54
22.5462	141.85
22.5564	140.70
22.5666	137.64
22.5767	139.80
22.5869	137.88
22.597	136.24
22.6072	137.10
22.6174	135.73
22.6275	134.54
22.6377	135.59
22.6479	133.24
22.658	131.75
22.6682	133.02
22.6784	132.20
22.6885	131.57
22.6987	131.52
22.7089	129.48
22.719	128.94
22.7292	127.69
22.7394	127.38
22.7495	125.63
22.7597	126.18
22.7698	126.24
22.78	124.52
22.7902	125.22
22.8003	123.83
22.8105	121.36
22.8207	120.54
22.8308	122.27
22.841	119.07
22.8512	120.38
22.8613	119.96
22.8715	117.93
22.8817	117.07
22.8918	118.19
22.902	114.91
22.9121	115.60
22.9223	114.97
22.9325	114.13
22.9426	113.88
22.9528	113.14
22.963	112.07
22.9731	110.38
22.9833	111.74
22.9935	109.78
23.0036	109.70
23.0138	108.87
23.024	107.75
23.0341	106.42
23.0443	108.67
23.0545	105.10
23.0646	104.76
23.0748	104.88
23.0849	105.02
23.0951	102.74
23.1053	102.91
23.1154	102.67
23.1256	102.02
23.1358	101.57
23.1459	101.11
23.1561	99.99
23.1663	100.49
23.1764	99.09
23.1866	99.60
23.1968	98.68
23.2069	96.74
23.2171	96.80
23.2272	97.10
23.2374	96.21
23.2476	96.40
23.2577	96.13
23.2679	92.54
23.2781	94.87
23.2882	93.16
23.2984	92.18
23.3086	93.34
23.3187	93.77
23.3289	91.71
23.3391	91.48
23.3492	90.07
23.3594	89.98
23.3695	90.29
23.3797	88.89
23.3899	90.59
23.4	89.46
23.4102	89.44
23.4204	88.29
23.4305	87.76
23.4407	86.95
23.4509	87.71
23.461	87.84
23.4712	85.50
23.4814	85.26
23.4915	85.12
23.5017	83.66
23.5119	85.92
23.522	82.60
23.5322	83.78
23.5423	83.23
23.5525	84.07
23.5627	83.41
23.5728	82.99
23.583	83.31
23.5932	80.45
23.6033	80.59
23.6135	80.32
23.6237	79.12
23.6338	80.99
23.644	79.95
23.6542	79.30
23.6643	79.66
23.6745	79.46
23.6846	78.45
23.6948	79.90
23.705	77.46
23.7151	77.66
23.7253	77.01
23.7355	78.07
23.7456	77.02
23.7558	77.18
23.766	77.30
23.7761	76.76
23.7863	76.57
23.7965	76.89
23.8066	76.13
23.8168	74.99
23.827	74.74
23.8371	74.60
23.8473	74.97
23.8574	74.77
23.8676	72.99
23.8778	76.44
23.8879	73.87
23.8981	73.18
23.9083	72.51
23.9184	72.95
23.9286	73.10
23.9388	71.82
23.9489	72.55
23.9591	72.53
23.9693	71.53
23.9794	71.64
23.9896	71.24
23.9997	71.47
24.0099	72.01
24.0201	71.13
24.0302	71.27
24.0404	69.60
24.0506	70.82
24.0607	70.28
24.0709	70.15
24.0811	69.84
24.0912	69.36
24.1014	70.18
24.1116	70.64
24.1217	68.63
24.1319	68.28
24.1421	69.86
24.1522	68.75
24.1624	68.05
24.1725	68.05
24.1827	68.73
24.1929	66.89
24.203	67.78
24.2132	68.04
24.2234	68.15
24.2335	67.84
24.2437	68.01
24.2539	67.72
24.264	67.45
24.2742	66.49
24.2844	66.37
24.2945	65.71
24.3047	66.58
24.3148	65.95
24.325	66.25
24.3352	65.44
24.3453	66.63
24.3555	65.01
24.3657	65.72
24.3758	64.38
24.386	65.34
24.3962	64.96
24.4063	63.98
24.4165	63.95
24.4267	64.93
24.4368	65.71
24.447	64.16
24.4572	63.43
24.4673	64.06
24.4775	64.45
24.4876	64.03
24.4978	64.38
24.508	64.46
24.5181	63.15
24.5283	63.07
24.5385	63.46
24.5486	62.96
24.5588	62.98
24.569	62.10
24.5791	62.38
24.5893	62.32
24.5995	61.99
24.6096	62.35
24.6198	62.23
24.6299	61.84
24.6401	61.99
24.6503	61.67
24.6604	60.74
24.6706	62.69
24.6808	62.32
24.6909	61.04
24.7011	60.73
24.7113	61.59
24.7214	61.51
24.7316	62.20
24.7418	61.68
24.7519	61.00
24.7621	61.07
24.7723	61.00
24.7824	60.38
24.7926	61.00
24.8027	60.55
24.8129	60.54
24.8231	60.77
24.8332	60.01
24.8434	61.16
24.8536	61.66
24.8637	60.62
24.8739	62.34
24.8841	58.73
24.8942	60.28
24.9044	59.85
24.9146	60.12
24.9247	59.82
24.9349	60.35
24.945	59.12
24.9552	59.36
24.9654	59.69
24.9755	59.28
24.9857	59.00
24.9959	59.68
25.006	58.38
25.0162	58.50
25.0264	59.37
25.0365	58.48
25.0467	59.81
25.0569	59.12
25.067	58.23
25.0772	57.84
25.0874	58.72
25.0975	57.82
25.1077	58.35
25.1178	57.77
25.128	58.44
25.1382	59.20
25.1483	58.34
25.1585	58.35
25.1687	58.95
25.1788	57.94
25.189	55.93
25.1992	58.57
25.2093	57.70
25.2195	57.07
25.2297	57.54
25.2398	58.23
25.25	57.63
25.2601	57.29
25.2703	57.48
25.2805	57.69
25.2906	56.91
25.3008	56.06
25.311	56.99
25.3211	58.12
25.3313	56.73
25.3415	58.23
25.3516	57.18
25.3618	57.15
25.372	56.87
25.3821	57.05
25.3923	55.70
25.4024	57.18
25.4126	56.59
25.4228	57.36
25.4329	56.25
25.4431	56.87
25.4533	55.88
25.4634	56.88
25.4736	56.13
25.4838	57.19
25.4939	55.70
25.5041	55.71
25.5143	55.99
25.5244	56.49
25.5346	56.27
25.5448	55.67
25.5549	55.07
25.5651	55.53
25.5752	56.53
25.5854	55.14
25.5956	56.12
25.6057	55.60
25.6159	54.15
25.6261	56.19
25.6362	55.45
25.6464	54.52
25.6566	55.02
25.6667	55.46
25.6769	55.02
25.6871	54.41
25.6972	54.60
25.7074	54.87
25.7175	55.59
25.7277	54.77
25.7379	54.13
25.748	55.51
25.7582	54.01
25.7684	53.60
25.7785	54.79
25.7887	53.57
25.7989	53.86
25.809	54.85
25.8192	53.93
25.8294	53.07
25.8395	53.84
25.8497	54.99
25.8599	53.07
25.87	54.12
25.8802	54.38
25.8903	53.38
25.9005	54.63
25.9107	53.70
25.9208	52.90
25.931	53.79
25.9412	53.58
25.9513	53.02
25.9615	53.60
25.9717	53.40
25.9818	53.67
25.992	53.27
26.0022	53.20
26.0123	52.66
26.0225	53.17
26.0326	53.56
26.0428	53.41
26.053	52.98
26.0631	52.76
26.0733	52.87
26.0835	52.45
26.0936	52.37
26.1038	52.54
26.114	51.79
26.1241	53.52
26.1343	53.00
26.1445	52.42
26.1546	52.77
26.1648	52.67
26.175	52.96
26.1851	53.78
26.1953	51.41
26.2054	51.66
26.2156	52.82
26.2258	51.41
26.2359	52.34
26.2461	52.54
26.2563	52.18
26.2664	52.11
26.2766	51.95
26.2868	51.78
26.2969	51.83
26.3071	51.60
26.3173	51.79
26.3274	51.49
26.3376	50.54
26.3477	50.05
26.3579	51.63
26.3681	52.71
26.3782	52.19
26.3884	51.18
26.3986	52.45
26.4087	50.86
26.4189	50.91
26.4291	50.98
26.4392	51.96
26.4494	50.82
26.4596	50.90
26.4697	52.22
26.4799	50.36
26.4901	50.35
26.5002	51.27
26.5104	50.83
26.5205	51.27
26.5307	51.05
26.5409	50.10
26.551	51.57
26.5612	50.92
26.5714	50.12
26.5815	50.95
26.5917	49.83
26.6019	50.13
26.612	51.36
26.6222	49.71
26.6324	50.55
26.6425	51.38
26.6527	50.84
26.6628	50.93
26.673	50.14
26.6832	50.07
26.6933	50.35
26.7035	48.98
26.7137	50.55
26.7238	50.99
26.734	50.54
26.7442	50.41
26.7543	49.93
26.7645	50.45
26.7747	49.32
26.7848	49.27
26.795	50.34
26.8052	49.78
26.8153	49.41
26.8255	50.66
26.8356	49.35
26.8458	49.60
26.856	49.93
26.8661	50.09
26.8763	48.76
26.8865	49.97
26.8966	49.62
26.9068	50.05
26.917	50.17
26.9271	49.63
26.9373	50.26
26.9475	50.23
26.9576	49.60
26.9678	49.90
26.9779	50.17
26.9881	50.27
26.9983	50.50
27.0084	50.12
27.0186	49.52
27.0288	48.57
27.0389	49.11
27.0491	49.90
27.0593	49.10
27.0694	49.68
27.0796	48.84
27.0898	49.89
27.0999	50.59
27.1101	49.35
27.1202	49.42
27.1304	48.89
27.1406	50.26
27.1507	49.99
27.1609	48.70
27.1711	50.02
27.1812	48.91
27.1914	49.42
27.2016	49.47
27.2117	48.74
27.2219	49.85
27.2321	49.15
27.2422	50.41
27.2524	50.35
27.2626	49.68
27.2727	49.80
27.2829	50.17
27.293	49.80
27.3032	50.22
27.3134	49.74
27.3235	49.89
27.3337	49.53
27.3439	49.21
27.354	49.66
27.3642	49.34
27.3744	49.70
27.3845	49.85
27.3947	50.71
27.4049	49.81
27.415	49.84
27.4252	49.93
27.4353	48.41
27.4455	50.09
27.4557	50.21
27.4658	50.52
27.476	49.09
27.4862	50.65
27.4963	51.34
27.5065	50.04
27.5167	49.99
27.5268	50.96
27.537	51.37
27.5472	50.22
27.5573	50.43
27.5675	51.07
27.5777	49.68
27.5878	51.18
27.598	51.07
27.6081	51.34
27.6183	51.36
27.6285	51.51
27.6386	51.51
27.6488	51.52
27.659	52.37
27.6691	51.29
27.6793	50.60
27.6895	53.07
27.6996	52.50
27.7098	52.49
27.72	52.38
27.7301	53.03
27.7403	53.04
27.7504	52.86
27.7606	53.32
27.7708	52.93
27.7809	52.73
27.7911	54.30
27.8013	53.01
27.8114	53.76
27.8216	54.37
27.8318	55.99
27.8419	54.62
27.8521	55.37
27.8623	53.82
27.8724	54.70
27.8826	56.06
27.8928	55.55
27.9029	55.46
27.9131	55.66
27.9232	56.10
27.9334	56.03
27.9436	57.68
27.9537	58.10
27.9639	56.67
27.9741	56.53
27.9842	56.77
27.9944	57.36
28.0046	57.84
28.0147	58.05
28.0249	59.09
28.0351	59.37
28.0452	58.71
28.0554	58.23
28.0655	60.25
28.0757	60.98
28.0859	59.62
28.096	59.52
28.1062	59.98
28.1164	61.99
28.1265	61.82
28.1367	61.93
28.1469	61.45
28.157	61.57
28.1672	61.18
28.1774	62.46
28.1875	61.62
28.1977	63.11
28.2079	62.07
28.218	63.38
28.2282	64.04
28.2383	62.80
28.2485	64.82
28.2587	63.89
28.2688	64.00
28.279	63.70
28.2892	63.29
28.2993	63.40
28.3095	63.71
28.3197	64.11
28.3298	63.66
28.34	62.73
28.3502	63.30
28.3603	64.03
28.3705	63.02
28.3806	64.22
28.3908	63.75
28.401	63.05
28.4111	63.25
28.4213	63.83
28.4315	62.34
28.4416	63.74
28.4518	63.74
28.462	63.18
28.4721	62.99
28.4823	62.26
28.4925	61.92
28.5026	62.95
28.5128	63.26
28.523	62.57
28.5331	63.15
28.5433	63.10
28.5534	62.08
28.5636	60.89
28.5738	62.85
28.5839	61.48
28.5941	61.54
28.6043	61.02
28.6144	59.89
28.6246	62.18
28.6348	60.95
28.6449	60.04
28.6551	60.26
28.6653	61.50
28.6754	59.27
28.6856	59.88
28.6957	58.16
28.7059	59.85
28.7161	59.15
28.7262	60.32
28.7364	57.72
28.7466	57.73
28.7567	57.82
28.7669	57.31
28.7771	57.52
28.7872	57.48
28.7974	56.70
28.8076	57.32
28.8177	57.13
28.8279	55.50
28.8381	56.27
28.8482	55.58
28.8584	55.21
28.8685	55.36
28.8787	55.30
28.8889	53.41
28.899	55.59
28.9092	54.83
28.9194	54.85
28.9295	53.57
28.9397	54.95
28.9499	53.60
28.96	52.58
28.9702	54.09
28.9804	53.34
28.9905	52.66
29.0007	52.80
29.0108	52.12
29.021	52.41
29.0312	52.81
29.0413	51.65
29.0515	52.30
29.0617	51.92
29.0718	51.56
29.082	50.68
29.0922	50.99
29.1023	51.52
29.1125	51.24
29.1227	51.18
29.1328	50.51
29.143	49.13
29.1531	51.61
29.1633	48.76
29.1735	50.27
29.1836	49.51
29.1938	49.43
29.204	49.02
29.2141	50.02
29.2243	49.18
29.2345	48.37
29.2446	49.47
29.2548	48.09
29.265	48.07
29.2751	47.63
29.2853	47.55
29.2955	48.30
29.3056	48.20
29.3158	47.13
29.3259	46.57
29.3361	46.57
29.3463	47.12
29.3564	47.54
29.3666	47.04
29.3768	45.57
29.3869	47.34
29.3971	46.75
29.4073	46.62
29.4174	46.43
29.4276	46.20
29.4378	45.87
29.4479	46.40
29.4581	46.49
29.4682	46.27
29.4784	45.91
29.4886	46.73
29.4987	45.17
29.5089	45.32
29.5191	46.02
29.5292	45.20
29.5394	45.32
29.5496	45.43
29.5597	45.79
29.5699	45.37
29.5801	46.13
29.5902	45.53
29.6004	44.99
29.6106	44.63
29.6207	43.99
29.6309	46.03
29.641	45.34
29.6512	44.75
29.6614	44.39
29.6715	44.84
29.6817	44.52
29.6919	43.55
29.702	44.73
29.7122	43.64
29.7224	45.01
29.7325	44.48
29.7427	44.18
29.7529	44.26
29.763	43.79
29.7732	43.95
29.7833	42.79
29.7935	44.65
29.8037	43.93
29.8138	43.43
29.824	43.67
29.8342	43.71
29.8443	42.71
29.8545	43.54
29.8647	43.29
29.8748	43.32
29.885	42.79
29.8952	42.18
29.9053	42.81
29.9155	43.59
29.9257	42.60
29.9358	43.20
29.946	43.61
29.9561	42.38
29.9663	42.16
29.9765	43.08
29.9866	42.71
29.9968	42.49
30.007	42.62
30.0171	42.10
30.0273	42.44
30.0375	41.89
30.0476	42.40
30.0578	42.30
30.068	42.46
30.0781	41.80
30.0883	41.76
30.0984	41.21
30.1086	40.89
30.1188	41.97
30.1289	40.14
30.1391	41.39
30.1493	41.06
30.1594	40.87
30.1696	41.48
30.1798	40.35
30.1899	40.10
30.2001	41.09
30.2103	40.95
30.2204	41.08
30.2306	39.79
30.2408	40.90
30.2509	40.73
30.2611	39.57
30.2712	39.90
30.2814	40.43
30.2916	39.48
30.3017	40.02
30.3119	39.60
30.3221	38.96
30.3322	38.35
30.3424	39.73
30.3526	38.49
30.3627	39.57
30.3729	39.14
30.3831	38.58
30.3932	39.45
30.4034	38.91
30.4135	39.42
30.4237	37.89
30.4339	38.64
30.444	38.70
30.4542	39.20
30.4644	38.11
30.4745	37.32
30.4847	38.70
30.4949	37.74
30.505	36.98
30.5152	36.93
30.5254	37.79
30.5355	37.59
30.5457	37.68
30.5559	38.34
30.566	36.91
30.5762	36.57
30.5863	37.76
30.5965	36.58
30.6067	37.26
30.6168	37.47
30.627	37.46
30.6372	37.11
30.6473	36.67
30.6575	36.23
30.6677	35.68
30.6778	36.16
30.688	36.51
30.6982	36.34
30.7083	36.22
30.7185	36.38
30.7286	36.18
30.7388	36.82
30.749	36.14
30.7591	36.32
30.7693	36.19
30.7795	36.57
30.7896	36.68
30.7998	36.59
30.81	35.25
30.8201	36.11
30.8303	36.88
30.8405	35.96
30.8506	35.54
30.8608	35.43
30.871	35.60
30.8811	35.27
30.8913	35.84
30.9014	35.49
30.9116	34.57
30.9218	35.23
30.9319	35.09
30.9421	35.77
30.9523	35.45
30.9624	35.54
30.9726	35.24
30.9828	36.20
30.9929	34.68
31.0031	34.68
31.0133	34.86
31.0234	35.20
31.0336	34.47
31.0437	34.70
31.0539	34.55
31.0641	35.27
31.0742	35.63
31.0844	34.21
31.0946	35.08
31.1047	34.88
31.1149	34.41
31.1251	34.90
31.1352	36.27
31.1454	34.95
31.1556	35.61
31.1657	34.99
31.1759	34.49
31.186	34.19
31.1962	35.41
31.2064	34.34
31.2165	34.70
31.2267	34.83
31.2369	35.12
31.247	34.62
31.2572	33.79
31.2674	33.93
31.2775	34.26
31.2877	34.25
31.2979	33.20
31.308	34.15
31.3182	33.78
31.3284	34.41
31.3385	33.61
31.3487	33.58
31.3588	34.36
31.369	33.72
31.3792	34.70
31.3893	33.41
31.3995	34.35
31.4097	34.15
31.4198	33.52
31.43	33.93
31.4402	33.74
31.4503	33.04
31.4605	33.91
31.4707	34.10
31.4808	34.02
31.491	33.63
31.5011	33.94
31.5113	32.93
31.5215	34.22
31.5316	33.66
31.5418	32.98
31.552	33.82
31.5621	33.84
31.5723	33.30
31.5825	32.84
31.5926	32.46
31.6028	33.32
31.613	32.95
31.6231	33.22
31.6333	33.18
31.6435	33.70
31.6536	33.63
31.6638	32.71
31.6739	33.37
31.6841	33.37
31.6943	32.79
31.7044	32.74
31.7146	33.13
31.7248	32.73
31.7349	33.76
31.7451	33.17
31.7553	33.30
31.7654	33.67
31.7756	32.92
31.7858	32.34
31.7959	32.91
31.8061	33.76
31.8162	33.45
31.8264	33.59
31.8366	33.18
31.8467	33.26
31.8569	33.84
31.8671	33.11
31.8772	33.14
31.8874	33.23
31.8976	33.54
31.9077	32.65
31.9179	32.15
31.9281	33.42
31.9382	32.40
31.9484	33.93
31.9586	33.26
31.9687	32.63
31.9789	33.48
31.989	33.19
31.9992	32.30
32.0094	32.53
32.0195	33.38
32.0297	32.57
32.0399	33.15
32.05	33.34
32.0602	32.88
32.0704	32.56
32.0805	32.30
32.0907	32.70
32.1009	32.54
32.111	34.01
32.1212	33.59
32.1313	33.43
32.1415	33.67
32.1517	33.29
32.1618	32.51
32.172	33.22
32.1822	32.29
32.1923	32.68
32.2025	32.80
32.2127	32.41
32.2228	32.38
32.233	33.12
32.2432	32.74
32.2533	32.42
32.2635	33.60
32.2737	33.15
32.2838	33.06
32.294	32.80
32.3041	32.11
32.3143	32.63
32.3245	32.89
32.3346	32.95
32.3448	33.07
32.355	33.29
32.3651	32.90
32.3753	32.71
32.3855	31.76
32.3956	32.37
32.4058	32.06
32.416	32.43
32.4261	32.38
32.4363	32.57
32.4464	33.73
32.4566	33.12
32.4668	32.93
32.4769	32.20
32.4871	30.87
32.4973	32.90
32.5074	32.11
32.5176	31.98
32.5278	31.93
32.5379	32.54
32.5481	32.52
32.5583	32.55
32.5684	32.15
32.5786	32.74
32.5888	31.39
32.5989	32.24
32.6091	32.24
32.6192	31.78
32.6294	32.32
32.6396	32.82
32.6497	32.38
32.6599	32.63
32.6701	30.86
32.6802	32.86
32.6904	32.10
32.7006	32.93
32.7107	32.98
32.7209	31.76
32.7311	31.73
32.7412	32.19
32.7514	31.82
32.7615	32.59
32.7717	32.44
32.7819	32.96
32.792	32.84
32.8022	32.40
32.8124	32.92
32.8225	32.05
32.8327	31.86
32.8429	33.25
32.853	32.95
32.8632	32.96
32.8734	33.53
32.8835	33.20
32.8937	32.38
32.9039	34.15
32.914	33.13
32.9242	32.96
32.9343	33.17
32.9445	32.39
32.9547	31.51
32.9648	33.03
32.975	32.84
32.9852	32.88
32.9953	33.01
33.0055	32.56
33.0157	33.08
33.0258	32.85
33.036	33.31
33.0462	33.07
33.0563	32.75
33.0665	33.75
33.0766	32.87
33.0868	33.31
33.097	33.27
33.1071	32.88
33.1173	33.51
33.1275	32.93
33.1376	32.49
33.1478	33.13
33.158	32.69
33.1681	34.01
33.1783	33.02
33.1885	32.71
33.1986	33.82
33.2088	33.49
33.2189	33.32
33.2291	33.16
33.2393	33.74
33.2494	33.59
33.2596	33.73
33.2698	33.15
33.2799	32.91
33.2901	33.25
33.3003	33.79
33.3104	33.55
33.3206	32.89
33.3308	32.94
33.3409	33.05
33.3511	33.41
33.3613	32.52
33.3714	33.64
33.3816	33.45
33.3917	32.84
33.4019	32.89
33.4121	33.02
33.4222	32.68
33.4324	32.89
33.4426	32.41
33.4527	32.41
33.4629	32.79
33.4731	32.70
33.4832	32.66
33.4934	32.59
33.5036	32.08
33.5137	31.34
33.5239	31.91
33.534	32.28
33.5442	31.72
33.5544	32.16
33.5645	31.85
33.5747	31.04
33.5849	31.94
33.595	30.59
33.6052	32.14
33.6154	31.44
33.6255	30.97
33.6357	31.07
33.6459	31.51
33.656	30.30
33.6662	30.93
33.6764	30.30
33.6865	30.84
33.6967	29.47
33.7068	30.32
33.717	30.99
33.7272	29.92
33.7373	30.45
33.7475	29.54
33.7577	29.01
33.7678	30.18
33.778	30.41
33.7882	29.88
33.7983	29.74
33.8085	29.85
33.8187	29.90
33.8288	29.20
33.839	30.27
33.8491	28.67
33.8593	29.99
33.8695	29.32
33.8796	29.27
33.8898	29.07
33.9	29.11
33.9101	28.97
33.9203	28.81
33.9305	28.75
33.9406	28.30
33.9508	28.95
33.961	28.88
33.9711	28.12
33.9813	28.82
33.9915	27.70
34.0016	28.95
34.0118	27.64
34.0219	27.94
34.0321	28.33
34.0423	28.30
34.0524	28.13
34.0626	27.88
34.0728	28.12
34.0829	28.48
34.0931	27.32
34.1033	28.65
34.1134	27.70
34.1236	28.20
34.1338	28.18
34.1439	27.85
34.1541	27.86
34.1642	28.47
34.1744	27.40
34.1846	27.36
34.1947	27.90
34.2049	27.58
34.2151	27.51
34.2252	27.82
34.2354	27.30
34.2456	26.84
34.2557	26.95
34.2659	27.68
34.2761	27.86
34.2862	27.74
34.2964	27.02
34.3066	27.23
34.3167	27.38
34.3269	27.62
34.337	27.01
34.3472	27.28
34.3574	26.89
34.3675	28.30
34.3777	27.24
34.3879	27.23
34.398	27.27
34.4082	27.84
34.4184	26.87
34.4285	26.93
34.4387	27.11
34.4489	27.21
34.459	27.34
34.4692	26.46
34.4793	26.74
34.4895	26.50
34.4997	27.07
34.5098	26.87
34.52	26.74
34.5302	27.35
34.5403	26.93
34.5505	26.00
34.5607	26.68
34.5708	27.30
34.581	26.78
34.5912	26.71
34.6013	26.58
34.6115	26.79
34.6217	26.00
34.6318	25.79
34.642	27.19
34.6521	26.91
34.6623	26.76
34.6725	26.98
34.6826	26.65
34.6928	25.83
34.703	26.04
34.7131	25.91
34.7233	26.81
34.7335	26.29
34.7436	26.54
34.7538	26.54
34.764	26.05
34.7741	26.73
34.7843	26.12
34.7944	26.41
34.8046	25.66
34.8148	26.14
34.8249	26.01
34.8351	26.59
34.8453	26.36
34.8554	26.36
34.8656	26.23
34.8758	25.51
34.8859	26.02
34.8961	26.81
34.9063	25.82
34.9164	26.04
34.9266	25.67
34.9367	25.90
34.9469	25.88
34.9571	25.33
34.9672	25.65
34.9774	26.20
34.9876	26.62
34.9977	25.76
35.0079	26.49
35.0181	25.66
35.0282	26.30
35.0384	26.49
35.0486	26.01
35.0587	25.39
35.0689	26.18
35.0791	25.37
35.0892	26.06
35.0994	26.10
35.1095	26.34
35.1197	25.65
35.1299	25.75
35.14	25.45
35.1502	25.91
35.1604	26.05
35.1705	26.20
35.1807	25.71
35.1909	25.49
35.201	25.69
35.2112	25.36
35.2214	25.34
35.2315	26.29
35.2417	25.04
35.2518	25.55
35.262	25.99
35.2722	26.12
35.2823	24.84
35.2925	25.60
35.3027	25.17
35.3128	24.51
35.323	25.66
35.3332	25.29
35.3433	25.59
35.3535	25.90
35.3637	25.65
35.3738	25.80
35.384	26.45
35.3942	25.94
35.4043	25.88
35.4145	24.75
35.4246	25.84
35.4348	24.80
35.445	25.54
35.4551	25.73
35.4653	25.68
35.4755	25.82
35.4856	25.35
35.4958	25.57
35.506	24.59
35.5161	24.65
35.5263	25.39
35.5365	25.22
35.5466	25.30
35.5568	25.16
35.5669	25.40
35.5771	24.64
35.5873	24.93
35.5974	26.10
35.6076	24.64
35.6178	24.71
35.6279	25.53
35.6381	25.40
35.6483	25.71
35.6584	24.57
35.6686	25.17
35.6788	25.43
35.6889	25.85
35.6991	24.71
35.7093	25.73
35.7194	25.20
35.7296	25.04
35.7397	24.25
35.7499	26.10
35.7601	24.87
35.7702	24.99
35.7804	25.19
35.7906	25.42
35.8007	25.04
35.8109	24.84
35.8211	25.21
35.8312	25.85
35.8414	25.28
35.8516	25.73
35.8617	25.46
35.8719	25.74
35.882	24.97
35.8922	25.12
35.9024	25.27
35.9125	24.84
35.9227	24.93
35.9329	26.21
35.943	25.22
35.9532	25.26
35.9634	24.81
35.9735	26.10
35.9837	24.90
35.9939	24.71
36.004	25.05
36.0142	25.38
36.0244	25.49
36.0345	24.63
36.0447	25.19
36.0548	25.35
36.065	24.75
36.0752	24.78
36.0853	25.23
36.0955	24.65
36.1057	25.24
36.1158	24.54
36.126	25.11
36.1362	25.35
36.1463	25.53
36.1565	25.23
36.1667	25.60
36.1768	25.09
36.187	24.72
36.1971	25.82
36.2073	25.26
36.2175	25.02
36.2276	25.03
36.2378	25.15
36.248	25.43
36.2581	24.85
36.2683	24.68
36.2785	25.19
36.2886	25.50
36.2988	24.55
36.309	25.46
36.3191	24.38
36.3293	24.70
36.3395	24.71
36.3496	24.52
36.3598	24.96
36.3699	25.29
36.3801	25.13
36.3903	25.29
36.4004	25.41
36.4106	24.83
36.4208	24.90
36.4309	24.78
36.4411	24.96
36.4513	24.96
36.4614	24.69
36.4716	24.75
36.4818	25.32
36.4919	25.83
36.5021	24.70
36.5122	24.70
36.5224	24.38
36.5326	25.22
36.5427	25.09
36.5529	24.88
36.5631	25.29
36.5732	24.73
36.5834	25.10
36.5936	25.34
36.6037	25.36
36.6139	24.36
36.6241	24.89
36.6342	25.17
36.6444	24.73
36.6546	25.15
36.6647	25.05
36.6749	25.13
36.685	25.05
36.6952	25.03
36.7054	25.95
36.7155	25.54
36.7257	25.61
36.7359	25.67
36.746	25.31
36.7562	25.29
36.7664	24.99
36.7765	24.17
36.7867	25.12
36.7969	25.51
36.807	25.40
36.8172	25.18
36.8273	25.10
36.8375	24.93
36.8477	25.68
36.8578	25.57
36.868	25.99
36.8782	25.85
36.8883	25.57
36.8985	25.70
36.9087	26.14
36.9188	25.95
36.929	25.79
36.9392	24.64
36.9493	25.00
36.9595	25.17
36.9696	26.19
36.9798	25.63
36.99	26.45
37.0001	25.27
37.0103	25.72
37.0205	25.79
37.0306	25.45
37.0408	26.07
37.051	25.28
37.0611	25.72
37.0713	26.32
37.0815	25.80
37.0916	25.82
37.1018	26.05
37.112	26.25
37.1221	26.03
37.1323	25.98
37.1424	25.77
37.1526	26.46
37.1628	25.71
37.1729	25.41
37.1831	25.38
37.1933	25.48
37.2034	25.82
37.2136	25.92
37.2238	26.20
37.2339	26.34
37.2441	26.19
37.2543	25.83
37.2644	25.96
37.2746	26.24
37.2847	26.54
37.2949	26.18
37.3051	26.31
37.3152	26.28
37.3254	27.01
37.3356	26.27
37.3457	26.37
37.3559	26.68
37.3661	26.35
37.3762	26.12
37.3864	26.11
37.3966	25.71
37.4067	26.26
37.4169	26.62
37.4271	26.30
37.4372	26.57
37.4474	26.47
37.4575	27.10
37.4677	26.22
37.4779	26.77
37.488	27.12
37.4982	27.07
37.5084	26.98
37.5185	27.22
37.5287	26.93
37.5389	27.06
37.549	25.83
37.5592	26.14
37.5694	26.57
37.5795	26.70
37.5897	26.84
37.5998	27.12
37.61	26.93
37.6202	27.42
37.6303	27.34
37.6405	27.12
37.6507	27.18
37.6608	27.82
37.671	27.39
37.6812	27.03
37.6913	26.77
37.7015	27.47
37.7117	27.47
37.7218	27.74
37.732	27.96
37.7422	27.37
37.7523	27.89
37.7625	27.65
37.7726	28.55
37.7828	27.51
37.793	27.45
37.8031	28.44
37.8133	27.69
37.8235	27.98
37.8336	27.58
37.8438	28.43
37.854	27.43
37.8641	28.17
37.8743	27.79
37.8845	27.66
37.8946	27.93
37.9048	28.21
37.9149	27.24
37.9251	27.79
37.9353	28.52
37.9454	27.93
37.9556	27.09
37.9658	28.06
37.9759	28.65
37.9861	28.22
37.9963	28.00
38.0064	27.70
38.0166	29.00
38.0268	28.05
38.0369	28.62
38.0471	28.49
38.0573	28.87
38.0674	28.24
38.0776	28.65
38.0877	28.90
38.0979	28.03
38.1081	28.30
38.1182	28.59
38.1284	28.05
38.1386	28.73
38.1487	28.75
38.1589	28.50
38.1691	28.38
38.1792	28.97
38.1894	28.85
38.1996	28.39
38.2097	29.28
38.2199	29.18
38.23	28.71
38.2402	28.23
38.2504	28.25
38.2605	28.79
38.2707	28.38
38.2809	29.30
38.291	29.05
38.3012	28.92
38.3114	28.76
38.3215	29.15
38.3317	28.74
38.3419	28.93
38.352	29.91
38.3622	28.77
38.3724	29.45
38.3825	28.35
38.3927	28.95
38.4028	29.74
38.413	28.46
38.4232	28.84
38.4333	28.56
38.4435	27.77
38.4537	29.27
38.4638	29.38
38.474	28.53
38.4842	29.29
38.4943	29.05
38.5045	29.40
38.5147	28.17
38.5248	29.45
38.535	28.82
38.5451	29.48
38.5553	28.61
38.5655	28.73
38.5756	28.50
38.5858	28.23
38.596	28.29
38.6061	29.02
38.6163	28.42
38.6265	28.65
38.6366	29.28
38.6468	28.96
38.657	28.99
38.6671	29.02
38.6773	28.65
38.6875	29.10
38.6976	28.99
38.7078	29.24
38.7179	28.42
38.7281	29.29
38.7383	28.79
38.7484	29.16
38.7586	28.54
38.7688	28.97
38.7789	28.39
38.7891	28.48
38.7993	28.96
38.8094	28.82
38.8196	28.46
38.8298	28.61
38.8399	28.50
38.8501	27.73
38.8602	28.37
38.8704	28.52
38.8806	28.15
38.8907	28.30
38.9009	28.96
38.9111	28.08
38.9212	28.35
38.9314	28.46
38.9416	28.39
38.9517	28.20
38.9619	28.01
38.9721	28.95
38.9822	28.37
38.9924	28.12
39.0025	28.16
39.0127	27.99
39.0229	28.07
39.033	28.41
39.0432	27.90
39.0534	27.96
39.0635	27.85
39.0737	28.05
39.0839	27.01
39.094	28.20
39.1042	27.62
39.1144	28.34
39.1245	27.70
39.1347	26.98
39.1449	27.41
39.155	27.63
39.1652	26.90
39.1753	26.85
39.1855	27.45
39.1957	26.91
39.2058	27.58
39.216	28.30
39.2262	27.61
39.2363	27.23
39.2465	26.71
39.2567	27.03
39.2668	27.01
39.277	26.88
39.2872	27.35
39.2973	25.76
39.3075	27.02
39.3176	26.76
39.3278	26.68
39.338	26.45
39.3481	26.69
39.3583	27.16
39.3685	26.51
39.3786	26.62
39.3888	27.07
39.399	26.86
39.4091	26.16
39.4193	26.48
39.4295	26.25
39.4396	26.80
39.4498	26.05
39.46	25.91
39.4701	26.35
39.4803	26.35
39.4904	26.88
39.5006	26.79
39.5108	26.45
39.5209	26.41
39.5311	26.82
39.5413	26.88
39.5514	25.80
39.5616	25.95
39.5718	25.85
39.5819	26.05
39.5921	26.30
39.6023	27.16
39.6124	26.46
39.6226	25.37
39.6327	26.04
39.6429	26.40
39.6531	26.37
39.6632	25.41
39.6734	25.69
39.6836	25.82
39.6937	26.21
39.7039	25.89
39.7141	26.04
39.7242	26.10
39.7344	26.00
39.7446	25.32
39.7547	25.07
39.7649	26.43
39.7751	25.73
39.7852	25.05
39.7954	26.40
39.8055	24.90
39.8157	25.73
39.8259	25.24
39.836	25.52
39.8462	25.67
39.8564	25.45
39.8665	25.71
39.8767	25.95
39.8869	25.30
39.897	25.05
39.9072	24.69
39.9174	25.49
39.9275	25.66
39.9377	24.62
39.9478	25.29
39.958	25.20
39.9682	25.21
39.9783	25.74
39.9885	24.51
39.9987	24.74
40.0088	25.05
