5.0023	49.65
5.0125	51.26
5.0226	49.27
5.0328	48.77
5.043	49.07
5.0531	47.91
5.0633	46.95
5.0735	46.02
5.0836	45.27
5.0938	44.22
5.1039	44.37
5.1141	44.59
5.1243	43.41
5.1344	43.39
5.1446	42.40
5.1548	41.19
5.1649	41.02
5.1751	39.92
5.1853	39.54
5.1954	39.71
5.2056	39.47
5.2158	38.33
5.2259	37.51
5.2361	38.89
5.2462	37.52
5.2564	36.93
5.2666	37.66
5.2767	36.40
5.2869	35.10
5.2971	35.16
5.3072	34.66
5.3174	34.49
5.3276	34.65
5.3377	33.28
5.3479	33.26
5.3581	33.41
5.3682	32.85
5.3784	32.82
5.3886	32.77
5.3987	31.81
5.4089	31.55
5.419	31.79
5.4292	30.43
5.4394	30.16
5.4495	30.78
5.4597	31.23
5.4699	30.04
5.48	30.24
5.4902	29.95
5.5004	29.30
5.5105	28.92
5.5207	28.59
5.5309	28.57
5.541	28.65
5.5512	28.57
5.5613	27.70
5.5715	27.73
5.5817	27.38
5.5918	28.12
5.602	26.98
5.6122	26.43
5.6223	27.45
5.6325	27.32
5.6427	25.95
5.6528	26.68
5.663	26.95
5.6732	25.97
5.6833	26.37
5.6935	25.82
5.7036	25.20
5.7138	25.98
5.724	25.56
5.7341	24.53
5.7443	24.76
5.7545	25.65
5.7646	24.97
5.7748	25.12
5.785	25.45
5.7951	25.23
5.8053	24.47
5.8155	25.36
5.8256	24.93
5.8358	24.90
5.846	25.13
5.8561	24.26
5.8663	24.12
5.8764	25.00
5.8866	23.28
5.8968	24.18
5.9069	24.48
5.9171	24.08
5.9273	24.16
5.9374	23.52
5.9476	23.85
5.9578	24.05
5.9679	24.02
5.9781	23.37
5.9883	23.47
5.9984	23.98
6.0086	23.76
6.0187	24.04
6.0289	23.42
6.0391	23.78
6.0492	23.98
6.0594	23.67
6.0696	23.58
6.0797	23.40
6.0899	23.81
6.1001	24.00
6.1102	23.20
6.1204	23.49
6.1306	23.11
6.1407	23.98
6.1509	23.38
6.1611	22.83
6.1712	23.63
6.1814	23.39
6.1915	23.49
6.2017	23.38
6.2119	23.13
6.222	23.18
6.2322	23.07
6.2424	22.69
6.2525	23.31
6.2627	23.20
6.2729	23.52
6.283	22.90
6.2932	22.88
6.3034	23.27
6.3135	23.41
6.3237	23.15
6.3338	22.77
6.344	23.09
6.3542	22.51
6.3643	23.23
6.3745	22.64
6.3847	22.98
6.3948	22.84
6.405	22.65
6.4152	22.80
6.4253	23.94
6.4355	23.43
6.4457	23.02
6.4558	23.70
6.466	23.43
6.4762	22.63
6.4863	23.33
6.4965	23.05
6.5066	22.87
6.5168	22.79
6.527	23.82
6.5371	23.76
6.5473	23.54
6.5575	23.39
6.5676	23.80
6.5778	23.03
6.588	23.87
6.5981	23.22
6.6083	23.48
6.6185	23.84
6.6286	23.38
6.6388	23.24
6.6489	23.71
6.6591	23.88
6.6693	23.00
6.6794	24.11
6.6896	23.65
6.6998	22.68
6.7099	22.91
6.7201	23.46
6.7303	23.48
6.7404	23.27
6.7506	23.54
6.7608	23.03
6.7709	23.73
6.7811	23.13
6.7913	23.28
6.8014	23.63
6.8116	24.28
6.8217	23.24
6.8319	23.87
6.8421	23.49
6.8522	23.79
6.8624	24.15
6.8726	23.26
6.8827	23.88
6.8929	24.59
6.9031	23.37
6.9132	23.35
6.9234	23.87
6.9336	23.44
6.9437	23.48
6.9539	23.59
6.964	23.45
6.9742	22.50
6.9844	24.38
6.9945	22.95
7.0047	23.50
7.0149	23.16
7.025	23.27
7.0352	23.70
7.0454	23.66
7.0555	23.55
7.0657	24.23
7.0759	25.36
7.086	23.25
7.0962	23.80
7.1064	24.45
7.1165	23.24
7.1267	24.49
7.1368	24.66
7.147	23.99
7.1572	23.86
7.1673	24.10
7.1775	23.55
7.1877	24.44
7.1978	24.10
7.208	24.03
7.2182	24.36
7.2283	24.57
7.2385	23.82
7.2487	24.69
7.2588	24.53
7.269	24.21
7.2791	24.91
7.2893	25.04
7.2995	24.63
7.3096	24.65
7.3198	25.01
7.33	24.94
7.3401	23.83
7.3503	24.60
7.3605	24.88
7.3706	24.87
7.3808	24.69
7.391	24.95
7.4011	25.41
7.4113	24.66
7.4215	24.64
7.4316	25.29
7.4418	25.22
7.4519	24.52
7.4621	25.15
7.4723	25.16
7.4824	24.93
7.4926	24.65
7.5028	24.61
7.5129	25.54
7.5231	25.29
7.5333	25.12
7.5434	24.56
7.5536	25.85
7.5638	25.66
7.5739	24.85
7.5841	25.57
7.5942	25.43
7.6044	25.64
7.6146	25.55
7.6247	25.34
7.6349	24.35
7.6451	25.09
7.6552	25.05
7.6654	24.79
7.6756	24.75
7.6857	25.65
7.6959	25.07
7.7061	25.16
7.7162	26.49
7.7264	25.37
7.7365	25.02
7.7467	25.18
7.7569	25.74
7.767	25.16
7.7772	25.45
7.7874	25.51
7.7975	25.55
7.8077	25.52
7.8179	25.09
7.828	25.51
7.8382	26.44
7.8484	25.41
7.8585	26.47
7.8687	25.90
7.8789	25.69
7.889	26.78
7.8992	26.09
7.9093	26.09
7.9195	26.36
7.9297	26.36
7.9398	26.88
7.95	26.32
7.9602	26.48
7.9703	25.93
7.9805	26.30
7.9907	25.84
8.0008	26.12
8.011	26.52
8.0212	26.60
8.0313	25.73
8.0415	26.74
8.0516	26.90
8.0618	25.13
8.072	26.23
8.0821	25.52
8.0923	25.65
8.1025	25.96
8.1126	26.51
8.1228	26.03
8.133	26.23
8.1431	26.55
8.1533	25.74
8.1635	26.30
8.1736	25.69
8.1838	26.00
8.194	27.26
8.2041	26.62
8.2143	26.59
8.2244	27.26
8.2346	25.96
8.2448	27.32
8.2549	26.95
8.2651	27.27
8.2753	27.96
8.2854	27.30
8.2956	27.48
8.3058	27.37
8.3159	27.07
8.3261	26.74
8.3363	27.36
8.3464	27.27
8.3566	26.74
8.3667	27.13
8.3769	28.13
8.3871	27.32
8.3972	26.96
8.4074	27.51
8.4176	26.94
8.4277	26.91
8.4379	27.88
8.4481	27.38
8.4582	27.31
8.4684	28.52
8.4786	27.26
8.4887	27.29
8.4989	27.54
8.5091	28.07
8.5192	27.34
8.5294	28.24
8.5395	28.29
8.5497	27.63
8.5599	28.18
8.57	27.89
8.5802	27.93
8.5904	27.55
8.6005	27.93
8.6107	27.25
8.6209	27.66
8.631	28.26
8.6412	28.07
8.6514	27.07
8.6615	28.23
8.6717	27.87
8.6818	27.38
8.692	27.87
8.7022	27.47
8.7123	28.19
8.7225	28.10
8.7327	28.10
8.7428	28.32
8.753	28.07
8.7632	28.62
8.7733	28.23
8.7835	28.46
8.7937	28.48
8.8038	28.30
8.814	28.46
8.8242	28.48
8.8343	28.80
8.8445	29.07
8.8546	27.93
8.8648	28.39
8.875	28.71
8.8851	28.16
8.8953	28.23
8.9055	27.50
8.9156	27.92
8.9258	28.44
8.936	28.97
8.9461	28.98
8.9563	28.84
8.9665	29.21
8.9766	28.24
8.9868	29.11
8.9969	29.03
9.0071	29.50
9.0173	29.43
9.0274	28.84
9.0376	28.62
9.0478	29.41
9.0579	30.03
9.0681	28.56
9.0783	28.47
9.0884	29.79
9.0986	29.53
9.1088	29.78
9.1189	28.84
9.1291	29.20
9.1393	29.26
9.1494	29.21
9.1596	29.76
9.1697	29.89
9.1799	29.48
9.1901	28.59
9.2002	29.90
9.2104	30.08
9.2206	28.73
9.2307	29.84
9.2409	28.93
9.2511	28.31
9.2612	29.46
9.2714	29.58
9.2816	29.38
9.2917	29.79
9.3019	29.81
9.312	29.90
9.3222	29.80
9.3324	30.21
9.3425	29.67
9.3527	30.17
9.3629	30.33
9.373	29.83
9.3832	30.35
9.3934	29.89
9.4035	29.98
9.4137	30.16
9.4239	29.96
9.434	29.94
9.4442	30.06
9.4544	30.59
9.4645	29.86
9.4747	29.01
9.4848	30.97
9.495	30.65
9.5052	30.43
9.5153	30.34
9.5255	29.63
9.5357	30.04
9.5458	31.09
9.556	30.41
9.5662	29.95
9.5763	31.29
9.5865	29.50
9.5967	29.48
9.6068	30.23
9.617	30.16
9.6271	30.21
9.6373	30.63
9.6475	30.00
9.6576	30.46
9.6678	30.55
9.678	30.24
9.6881	30.63
9.6983	30.20
9.7085	31.86
9.7186	30.43
9.7288	30.32
9.739	30.07
9.7491	30.55
9.7593	31.02
9.7694	30.39
9.7796	31.27
9.7898	30.82
9.7999	30.80
9.8101	30.05
9.8203	30.42
9.8304	30.76
9.8406	30.62
9.8508	31.21
9.8609	30.97
9.8711	31.57
9.8813	32.09
9.8914	31.38
9.9016	31.27
9.9118	30.68
9.9219	31.32
9.9321	30.70
9.9422	31.31
9.9524	31.22
9.9626	32.29
9.9727	31.29
9.9829	31.50
9.9931	31.18
10.0032	30.86
10.0134	30.99
10.0236	31.99
10.0337	32.45
10.0439	30.82
10.0541	31.79
10.0642	31.60
10.0744	31.41
10.0845	31.35
10.0947	31.80
10.1049	32.27
10.115	31.60
10.1252	32.03
10.1354	32.32
10.1455	32.04
10.1557	30.79
10.1659	31.92
10.176	33.16
10.1862	32.05
10.1964	32.90
10.2065	32.18
10.2167	31.98
10.2269	32.79
10.237	32.16
10.2472	32.29
10.2573	32.05
10.2675	33.07
10.2777	32.11
10.2878	32.77
10.298	32.67
10.3082	32.46
10.3183	31.63
10.3285	32.35
10.3387	32.07
10.3488	32.00
10.359	32.28
10.3692	32.80
10.3793	32.65
10.3895	32.08
10.3996	32.42
10.4098	32.20
10.42	31.44
10.4301	32.05
10.4403	31.91
10.4505	31.70
10.4606	32.89
10.4708	33.10
10.481	31.92
10.4911	32.48
10.5013	33.42
10.5115	33.02
10.5216	33.40
10.5318	33.27
10.542	33.23
10.5521	33.22
10.5623	33.19
10.5724	33.42
10.5826	32.14
10.5928	33.18
10.6029	32.15
10.6131	32.99
10.6233	32.97
10.6334	31.87
10.6436	32.66
10.6538	33.16
10.6639	32.84
10.6741	33.76
10.6843	33.55
10.6944	34.71
10.7046	32.45
10.7147	32.99
10.7249	33.38
10.7351	32.88
10.7452	33.56
10.7554	33.63
10.7656	33.23
10.7757	33.70
10.7859	34.17
10.7961	32.98
10.8062	33.82
10.8164	33.24
10.8266	33.73
10.8367	33.90
10.8469	32.12
10.8571	33.73
10.8672	33.02
10.8774	34.77
10.8875	33.72
10.8977	34.59
10.9079	35.01
10.918	33.70
10.9282	34.14
10.9384	34.09
10.9485	33.96
10.9587	34.52
10.9689	34.77
10.979	33.55
10.9892	33.98
10.9994	34.01
11.0095	33.53
11.0197	34.20
11.0298	35.13
11.04	34.57
11.0502	33.85
11.0603	34.99
11.0705	34.63
11.0807	33.90
11.0908	34.76
11.101	34.30
11.1112	34.80
11.1213	34.25
11.1315	33.63
11.1417	34.98
11.1518	35.43
11.162	34.46
11.1722	34.43
11.1823	34.30
11.1925	36.17
11.2026	35.14
11.2128	35.09
11.223	34.58
11.2331	34.91
11.2433	34.93
11.2535	34.51
11.2636	34.41
11.2738	35.01
11.284	33.82
11.2941	35.23
11.3043	35.55
11.3145	34.27
11.3246	35.90
11.3348	35.14
11.3449	36.02
11.3551	36.07
11.3653	35.73
11.3754	35.77
11.3856	35.71
11.3958	36.60
11.4059	35.30
11.4161	35.38
11.4263	35.85
11.4364	34.99
11.4466	35.45
11.4568	35.79
11.4669	36.60
11.4771	35.62
11.4873	35.86
11.4974	35.38
11.5076	35.77
11.5177	36.01
11.5279	35.52
11.5381	35.59
11.5482	35.86
11.5584	35.51
11.5686	36.65
11.5787	36.24
11.5889	36.02
11.5991	36.25
11.6092	36.31
11.6194	36.82
11.6296	36.73
11.6397	36.34
11.6499	36.31
11.66	36.93
11.6702	36.45
11.6804	36.32
11.6905	37.37
11.7007	36.32
11.7109	37.22
11.721	36.51
11.7312	37.05
11.7414	37.56
11.7515	36.11
11.7617	37.91
11.7719	37.30
11.782	36.63
11.7922	36.71
11.8023	36.86
11.8125	36.70
11.8227	37.46
11.8328	36.47
11.843	36.20
11.8532	38.15
11.8633	37.72
11.8735	37.02
11.8837	37.53
11.8938	37.80
11.904	37.82
11.9142	37.74
11.9243	37.00
11.9345	38.48
11.9447	38.10
11.9548	37.36
11.965	37.36
11.9751	37.94
11.9853	37.50
11.9955	38.16
12.0056	37.69
12.0158	39.04
12.026	38.30
12.0361	39.24
12.0463	38.35
12.0565	38.38
12.0666	38.02
12.0768	38.71
12.087	38.13
12.0971	38.82
12.1073	38.48
12.1174	37.73
12.1276	38.36
12.1378	38.05
12.1479	37.64
12.1581	39.02
12.1683	38.48
12.1784	38.27
12.1886	39.02
12.1988	38.98
12.2089	39.84
12.2191	39.43
12.2293	39.67
12.2394	39.17
12.2496	38.62
12.2598	40.10
12.2699	39.40
12.2801	40.04
12.2902	39.29
12.3004	38.60
12.3106	40.49
12.3207	38.87
12.3309	39.76
12.3411	39.36
12.3512	39.04
12.3614	39.63
12.3716	39.30
12.3817	40.04
12.3919	39.55
12.4021	40.97
12.4122	40.16
12.4224	39.75
12.4325	40.18
12.4427	41.15
12.4529	41.07
12.463	39.45
12.4732	39.93
12.4834	40.85
12.4935	40.98
12.5037	40.15
12.5139	40.12
12.524	40.96
12.5342	40.69
12.5444	40.48
12.5545	41.07
12.5647	40.79
12.5749	40.19
12.585	41.60
12.5952	40.51
12.6053	40.87
12.6155	40.94
12.6257	40.39
12.6358	41.52
12.646	41.98
12.6562	41.00
12.6663	41.54
12.6765	41.68
12.6867	41.80
12.6968	41.07
12.707	41.24
12.7172	41.66
12.7273	41.95
12.7375	42.10
12.7476	42.63
12.7578	41.98
12.768	42.01
12.7781	43.15
12.7883	41.85
12.7985	42.52
12.8086	42.68
12.8188	42.20
12.829	42.71
12.8391	42.63
12.8493	41.99
12.8595	42.01
12.8696	42.63
12.8798	41.35
12.89	41.88
12.9001	41.97
12.9103	43.87
12.9204	42.97
12.9306	42.52
12.9408	43.70
12.9509	43.65
12.9611	43.18
12.9713	43.12
12.9814	44.33
12.9916	43.73
13.0018	43.54
13.0119	43.13
13.0221	43.54
13.0323	42.82
13.0424	43.85
13.0526	43.60
13.0627	43.71
13.0729	43.55
13.0831	44.32
13.0932	43.92
13.1034	45.31
13.1136	44.27
13.1237	43.17
13.1339	44.80
13.1441	44.23
13.1542	45.19
13.1644	44.52
13.1746	43.92
13.1847	45.57
13.1949	44.65
13.2051	44.42
13.2152	46.01
13.2254	45.31
13.2355	44.48
13.2457	45.09
13.2559	45.71
13.266	45.52
13.2762	45.92
13.2864	45.18
13.2965	46.52
13.3067	44.73
13.3169	45.15
13.327	45.04
13.3372	46.24
13.3474	46.26
13.3575	46.83
13.3677	46.16
13.3778	46.68
13.388	45.78
13.3982	45.18
13.4083	46.65
13.4185	47.28
13.4287	45.74
13.4388	46.91
13.449	47.51
13.4592	46.79
13.4693	46.73
13.4795	47.18
13.4897	46.80
13.4998	47.32
13.51	47.15
13.5201	47.48
13.5303	48.02
13.5405	48.91
13.5506	48.40
13.5608	47.64
13.571	46.73
13.5811	47.24
13.5913	47.21
13.6015	47.35
13.6116	49.34
13.6218	48.50
13.632	47.71
13.6421	48.26
13.6523	47.23
13.6625	48.64
13.6726	48.85
13.6828	48.10
13.6929	47.57
13.7031	49.35
13.7133	49.62
13.7234	48.95
13.7336	49.82
13.7438	49.37
13.7539	48.51
13.7641	49.81
13.7743	48.74
13.7844	49.31
13.7946	49.27
13.8048	49.27
13.8149	49.13
13.8251	49.57
13.8352	50.51
13.8454	50.18
13.8556	49.60
13.8657	50.20
13.8759	49.83
13.8861	51.10
13.8962	50.46
13.9064	51.31
13.9166	51.69
13.9267	50.33
13.9369	50.12
13.9471	50.95
13.9572	50.49
13.9674	51.71
13.9776	50.93
13.9877	51.35
13.9979	51.88
14.008	51.63
14.0182	51.71
14.0284	51.89
14.0385	52.09
14.0487	52.20
14.0589	52.15
14.069	52.04
14.0792	50.68
14.0894	52.00
14.0995	52.82
14.1097	52.83
14.1199	51.85
14.13	52.85
14.1402	52.57
14.1503	52.10
14.1605	52.85
14.1707	53.48
14.1808	53.43
14.191	53.65
14.2012	53.79
14.2113	54.18
14.2215	53.34
14.2317	53.74
14.2418	53.65
14.252	55.52
14.2622	53.54
14.2723	55.15
14.2825	55.43
14.2927	54.51
14.3028	54.79
14.313	54.81
14.3231	54.89
14.3333	55.60
14.3435	55.87
14.3536	54.85
14.3638	54.70
14.374	55.37
14.3841	56.10
14.3943	56.27
14.4045	54.43
14.4146	56.18
14.4248	55.93
14.435	55.75
14.4451	57.34
14.4553	56.12
14.4654	55.37
14.4756	56.62
14.4858	56.59
14.4959	57.07
14.5061	57.52
14.5163	56.01
14.5264	56.84
14.5366	57.26
14.5468	56.07
14.5569	57.87
14.5671	56.44
14.5773	57.30
14.5874	58.52
14.5976	57.74
14.6078	57.56
14.6179	59.25
14.6281	58.21
14.6382	57.90
14.6484	59.05
14.6586	58.30
14.6687	58.87
14.6789	60.60
14.6891	59.02
14.6992	59.07
14.7094	59.95
14.7196	59.43
14.7297	59.34
14.7399	60.55
14.7501	60.18
14.7602	59.87
14.7704	61.69
14.7805	60.97
14.7907	60.30
14.8009	60.99
14.811	60.79
14.8212	59.84
14.8314	60.89
14.8415	60.57
14.8517	59.96
14.8619	62.07
14.872	61.34
14.8822	61.21
14.8924	62.13
14.9025	63.16
14.9127	61.34
14.9229	63.04
14.933	61.34
14.9432	62.52
14.9533	63.30
14.9635	62.80
14.9737	62.27
14.9838	63.13
14.994	63.25
15.0042	62.84
15.0143	63.32
15.0245	62.72
15.0347	63.59
15.0448	63.82
15.055	63.88
15.0652	63.82
15.0753	63.30
15.0855	64.70
15.0956	64.76
15.1058	64.16
15.116	64.77
15.1261	64.99
15.1363	64.93
15.1465	64.99
15.1566	65.67
15.1668	65.37
15.177	65.55
15.1871	65.13
15.1973	65.07
15.2075	65.91
15.2176	65.93
15.2278	66.17
15.238	66.90
15.2481	66.91
15.2583	66.52
15.2684	66.38
15.2786	65.35
15.2888	67.45
15.2989	67.38
15.3091	67.15
15.3193	67.45
15.3294	67.68
15.3396	68.68
15.3498	68.25
15.3599	68.45
15.3701	66.98
15.3803	68.18
15.3904	68.61
15.4006	69.18
15.4107	69.38
15.4209	68.18
15.4311	68.62
15.4412	70.81
15.4514	70.27
15.4616	70.02
15.4717	70.48
15.4819	69.51
15.4921	69.92
15.5022	71.37
15.5124	71.21
15.5226	73.10
15.5327	70.87
15.5429	70.09
15.553	71.37
15.5632	70.33
15.5734	70.13
15.5835	70.86
15.5937	72.59
15.6039	73.04
15.614	71.86
15.6242	72.32
15.6344	71.70
15.6445	71.87
15.6547	73.73
15.6649	72.76
15.675	72.78
15.6852	73.54
15.6954	74.27
15.7055	75.38
15.7157	72.29
15.7258	72.63
15.736	73.86
15.7462	73.99
15.7563	74.07
15.7665	74.54
15.7767	74.56
15.7868	75.18
15.797	75.34
15.8072	75.70
15.8173	74.52
15.8275	76.45
15.8377	76.16
15.8478	75.21
15.858	76.35
15.8681	76.26
15.8783	76.54
15.8885	75.98
15.8986	77.00
15.9088	75.32
15.919	75.61
15.9291	77.72
15.9393	78.16
15.9495	78.33
15.9596	77.64
15.9698	77.70
15.98	78.33
15.9901	78.10
16.0003	80.00
16.0105	78.32
16.0206	78.81
16.0308	78.68
16.0409	79.19
16.0511	80.25
16.0613	79.75
16.0714	78.73
16.0816	79.40
16.0918	80.45
16.1019	78.77
16.1121	78.97
16.1223	81.16
16.1324	79.38
16.1426	80.58
16.1528	82.56
16.1629	82.52
16.1731	82.12
16.1832	81.54
16.1934	83.19
16.2036	82.13
16.2137	81.91
16.2239	83.68
16.2341	82.88
16.2442	82.46
16.2544	82.56
16.2646	83.83
16.2747	83.55
16.2849	82.85
16.2951	83.49
16.3052	83.45
16.3154	84.05
16.3256	83.75
16.3357	85.00
16.3459	84.16
16.356	86.04
16.3662	85.66
16.3764	84.28
16.3865	86.62
16.3967	86.57
16.4069	87.15
16.417	86.78
16.4272	86.64
16.4374	87.46
16.4475	86.45
16.4577	87.26
16.4679	86.89
16.478	85.99
16.4882	85.91
16.4983	87.77
16.5085	88.37
16.5187	90.78
16.5288	89.03
16.539	89.43
16.5492	87.90
16.5593	89.42
16.5695	89.60
16.5797	89.88
16.5898	90.14
16.6	90.32
16.6102	91.16
16.6203	91.00
16.6305	90.95
16.6407	90.87
16.6508	91.12
16.661	93.48
16.6711	91.63
16.6813	91.91
16.6915	92.36
16.7016	92.52
16.7118	94.01
16.722	93.23
16.7321	92.89
16.7423	93.41
16.7525	94.64
16.7626	93.36
16.7728	95.29
16.783	94.85
16.7931	94.23
16.8033	94.93
16.8134	95.27
16.8236	95.60
16.8338	95.38
16.8439	95.76
16.8541	95.57
16.8643	94.84
16.8744	96.06
16.8846	96.93
16.8948	96.13
16.9049	96.64
16.9151	97.13
16.9253	96.74
16.9354	97.70
16.9456	96.87
16.9558	97.52
16.9659	98.16
16.9761	96.25
16.9862	98.61
16.9964	98.61
17.0066	98.71
17.0167	98.52
17.0269	99.10
17.0371	97.69
17.0472	97.96
17.0574	99.76
17.0676	99.14
17.0777	98.80
17.0879	99.19
17.0981	99.76
17.1082	100.92
17.1184	100.23
17.1285	99.22
17.1387	101.30
17.1489	102.03
17.159	101.16
17.1692	100.88
17.1794	102.21
17.1895	102.12
17.1997	101.14
17.2099	102.68
17.22	102.97
17.2302	103.37
17.2404	104.65
17.2505	101.73
17.2607	103.17
17.2709	103.99
17.281	102.24
17.2912	104.19
17.3013	104.26
17.3115	104.04
17.3217	103.77
17.3318	105.54
17.342	105.50
17.3522	103.16
17.3623	104.52
17.3725	106.47
17.3827	104.83
17.3928	106.96
17.403	106.73
17.4132	106.70
17.4233	107.93
17.4335	107.22
17.4436	106.84
17.4538	108.96
17.464	108.36
17.4741	108.71
17.4843	109.82
17.4945	108.26
17.5046	110.20
17.5148	109.98
17.525	108.85
17.5351	110.98
17.5453	110.35
17.5555	110.44
17.5656	111.29
17.5758	112.34
17.5859	110.99
17.5961	110.30
17.6063	112.05
17.6164	111.45
17.6266	114.13
17.6368	112.62
17.6469	112.42
17.6571	112.87
17.6673	116.07
17.6774	115.09
17.6876	114.87
17.6978	118.10
17.7079	115.74
17.7181	115.93
17.7283	116.87
17.7384	116.71
17.7486	119.44
17.7587	118.89
17.7689	118.51
17.7791	119.45
17.7892	120.74
17.7994	120.00
17.8096	122.54
17.8197	121.84
17.8299	121.63
17.8401	122.65
17.8502	125.14
17.8604	124.02
17.8706	125.80
17.8807	125.35
17.8909	126.42
17.901	125.91
17.9112	127.35
17.9214	128.44
17.9315	128.60
17.9417	130.47
17.9519	132.35
17.962	131.70
17.9722	134.59
17.9824	132.63
17.9925	135.98
18.0027	136.42
18.0129	137.26
18.023	136.53
18.0332	139.67
18.0434	141.35
18.0535	142.21
18.0637	144.20
18.0738	145.76
18.084	146.36
18.0942	147.18
18.1043	148.11
18.1145	150.95
18.1247	150.97
18.1348	152.91
18.145	152.72
18.1552	155.77
18.1653	157.31
18.1755	160.58
18.1857	162.24
18.1958	163.56
18.206	164.98
18.2161	166.62
18.2263	172.05
18.2365	171.46
18.2466	174.82
18.2568	175.93
18.267	176.74
18.2771	181.90
18.2873	186.50
18.2975	185.43
18.3076	189.92
18.3178	193.59
18.328	194.52
18.3381	198.45
18.3483	200.85
18.3585	203.82
18.3686	206.49
18.3788	209.50
18.3889	211.38
18.3991	216.52
18.4093	219.96
18.4194	221.95
18.4296	226.80
18.4398	226.59
18.4499	228.02
18.4601	234.29
18.4703	238.36
18.4804	237.48
18.4906	245.54
18.5008	247.21
18.5109	246.98
18.5211	251.72
18.5312	257.28
18.5414	254.10
18.5516	258.85
18.5617	260.41
18.5719	260.84
18.5821	265.20
18.5922	264.55
18.6024	264.77
18.6126	268.71
18.6227	267.70
18.6329	267.23
18.6431	268.57
18.6532	269.68
18.6634	269.88
18.6736	269.95
18.6837	270.02
18.6939	267.85
18.704	267.40
18.7142	267.31
18.7244	263.57
18.7345	261.56
18.7447	261.41
18.7549	254.32
18.765	258.24
18.7752	254.28
18.7854	250.18
18.7955	250.60
18.8057	246.27
18.8159	243.28
18.826	239.38
18.8362	236.56
18.8463	234.57
18.8565	231.34
18.8667	229.77
18.8768	223.37
18.887	221.19
18.8972	219.99
18.9073	213.51
18.9175	213.17
18.9277	208.26
18.9378	205.66
18.948	201.50
18.9582	201.15
18.9683	196.49
18.9785	195.45
18.9887	191.40
18.9988	189.45
19.009	188.75
19.0191	182.99
19.0293	182.07
19.0395	180.00
19.0496	175.95
19.0598	172.84
19.07	173.13
19.0801	170.59
19.0903	166.85
19.1005	165.61
19.1106	166.41
19.1208	162.36
19.131	161.40
19.1411	159.42
19.1513	157.20
19.1614	155.90
19.1716	153.99
19.1818	151.63
19.1919	151.73
19.2021	150.10
19.2123	147.89
19.2224	148.79
19.2326	147.51
19.2428	145.20
19.2529	144.74
19.2631	144.75
19.2733	142.52
19.2834	141.23
19.2936	140.77
19.3038	140.54
19.3139	139.48
19.3241	137.37
19.3342	138.98
19.3444	137.26
19.3546	136.25
19.3647	135.80
19.3749	136.23
19.3851	135.60
19.3952	132.76
19.4054	133.54
19.4156	132.23
19.4257	131.29
19.4359	132.42
19.4461	129.37
19.4562	129.46
19.4664	129.49
19.4765	130.38
19.4867	127.29
19.4969	128.92
19.507	127.18
19.5172	128.59
19.5274	126.91
19.5375	129.16
19.5477	128.24
19.5579	128.46
19.568	125.44
19.5782	126.59
19.5884	125.04
19.5985	126.77
19.6087	125.99
19.6188	125.71
19.629	126.37
19.6392	125.02
19.6493	125.13
19.6595	123.03
19.6697	124.21
19.6798	123.46
19.69	124.04
19.7002	124.96
19.7103	123.25
19.7205	123.99
19.7307	124.07
19.7408	122.57
19.751	122.24
19.7612	125.30
19.7713	122.77
19.7815	124.27
19.7916	123.52
19.8018	123.23
19.812	122.40
19.8221	122.25
19.8323	123.68
19.8425	123.37
19.8526	123.79
19.8628	123.00
19.873	123.71
19.8831	123.80
19.8933	124.12
19.9035	124.93
19.9136	121.49
19.9238	126.38
19.9339	124.57
19.9441	123.09
19.9543	124.87
19.9644	126.25
19.9746	124.75
19.9848	124.35
19.9949	125.71
20.0051	124.07
20.0153	125.46
20.0254	126.84
20.0356	125.43
20.0458	125.99
20.0559	127.70
20.0661	126.33
20.0763	126.47
20.0864	127.73
20.0966	126.46
20.1067	127.64
20.1169	129.99
20.1271	128.35
20.1372	130.87
20.1474	129.91
20.1576	131.37
20.1677	131.40
20.1779	131.65
20.1881	129.91
20.1982	131.97
20.2084	132.84
20.2186	131.62
20.2287	132.33
20.2389	133.60
20.249	133.93
20.2592	135.73
20.2694	134.99
20.2795	135.23
20.2897	136.21
20.2999	137.63
20.31	136.49
20.3202	138.38
20.3304	138.13
20.3405	137.22
20.3507	138.63
20.3609	138.32
20.371	139.24
20.3812	140.81
20.3914	140.04
20.4015	139.00
20.4117	141.97
20.4218	141.57
20.432	142.11
20.4422	140.93
20.4523	142.15
20.4625	142.70
20.4727	142.63
20.4828	144.38
20.493	143.01
20.5032	144.59
20.5133	147.12
20.5235	142.79
20.5337	145.85
20.5438	143.59
20.554	145.30
20.5641	145.30
20.5743	145.37
20.5845	145.30
20.5946	147.55
20.6048	146.38
20.615	146.16
20.6251	144.53
20.6353	146.05
20.6455	144.43
20.6556	144.05
20.6658	142.74
20.676	143.86
20.6861	141.93
20.6963	143.29
20.7065	143.48
20.7166	142.54
20.7268	142.66
20.7369	142.34
20.7471	144.31
20.7573	141.63
20.7674	139.56
20.7776	139.07
20.7878	139.34
20.7979	138.19
20.8081	139.60
20.8183	136.52
20.8284	136.44
20.8386	136.25
20.8488	135.44
20.8589	133.41
20.8691	135.08
20.8792	134.31
20.8894	131.80
20.8996	132.93
20.9097	129.71
20.9199	130.32
20.9301	131.15
20.9402	130.87
20.9504	127.98
20.9606	128.01
20.9707	128.07
20.9809	126.82
20.9911	126.08
21.0012	125.70
21.0114	125.24
21.0216	124.31
21.0317	122.59
21.0419	120.93
21.052	123.99
21.0622	121.07
21.0724	122.12
21.0825	121.54
21.0927	120.38
21.1029	118.83
21.113	120.80
21.1232	119.01
21.1334	118.32
21.1435	117.46
21.1537	118.21
21.1639	116.53
21.174	115.62
21.1842	115.80
21.1943	115.41
21.2045	114.66
21.2147	114.97
21.2248	112.60
21.235	114.11
21.2452	114.96
21.2553	112.37
21.2655	113.95
21.2757	113.24
21.2858	112.20
21.296	112.16
21.3062	114.18
21.3163	111.22
21.3265	110.46
21.3366	111.04
21.3468	109.96
21.357	111.89
21.3671	111.58
21.3773	111.59
21.3875	112.33
21.3976	110.77
21.4078	110.43
21.418	110.85
21.4281	110.76
21.4383	109.15
21.4485	110.79
21.4586	109.84
21.4688	109.33
21.479	110.62
21.4891	109.91
21.4993	109.19
21.5094	110.91
21.5196	110.82
21.5298	109.32
21.5399	110.42
21.5501	111.72
21.5603	109.67
21.5704	110.61
21.5806	111.49
21.5908	110.50
21.6009	111.19
21.6111	112.33
21.6213	112.37
21.6314	113.50
21.6416	112.94
21.6517	111.16
21.6619	114.11
21.6721	115.94
21.6822	114.04
21.6924	115.59
21.7026	115.60
21.7127	115.60
21.7229	118.34
21.7331	116.68
21.7432	117.03
21.7534	119.05
21.7636	120.22
21.7737	119.22
21.7839	120.08
21.7941	121.65
21.8042	119.60
21.8144	121.85
21.8245	123.88
21.8347	122.48
21.8449	123.67
21.855	126.26
21.8652	124.77
21.8754	126.18
21.8855	127.38
21.8957	127.62
21.9059	128.69
21.916	128.66
21.9262	129.23
21.9364	130.59
21.9465	133.10
21.9567	132.08
21.9668	134.01
21.977	135.37
21.9872	134.60
21.9973	138.91
22.0075	136.06
22.0177	137.46
22.0278	139.41
22.038	140.60
22.0482	139.29
22.0583	142.75
22.0685	143.39
22.0787	143.01
22.0888	145.05
22.099	146.61
22.1092	145.30
22.1193	146.48
22.1295	149.48
22.1396	149.09
22.1498	151.66
22.16	152.80
22.1701	152.74
22.1803	155.66
22.1905	157.87
22.2006	155.75
22.2108	157.59
22.221	158.90
22.2311	158.80
22.2413	162.68
22.2515	163.03
22.2616	161.71
22.2718	162.43
22.2819	165.40
22.2921	163.96
22.3023	164.50
22.3124	166.09
22.3226	167.34
22.3328	167.21
22.3429	167.71
22.3531	166.83
22.3633	170.41
22.3734	168.95
22.3836	166.59
22.3938	170.92
22.4039	171.11
22.4141	169.98
22.4243	170.16
22.4344	171.62
22.4446	169.65
22.4547	172.27
22.4649	172.38
22.4751	168.43
22.4852	169.73
22.4954	170.83
22.5056	166.52
22.5157	168.71
22.5259	169.29
22.5361	168.18
22.5462	167.83
22.5564	168.02
22.5666	166.68
22.5767	165.51
22.5869	167.43
22.597	164.64
22.6072	163.66
22.6174	163.90
22.6275	162.14
22.6377	162.08
22.6479	162.63
22.658	159.80
22.6682	159.46
22.6784	160.09
22.6885	155.66
22.6987	156.29
22.7089	156.37
22.719	153.51
22.7292	153.76
22.7394	153.65
22.7495	150.19
22.7597	150.78
22.7698	150.38
22.78	145.38
22.7902	147.41
22.8003	147.99
22.8105	143.34
22.8207	143.26
22.8308	142.09
22.841	139.89
22.8512	141.15
22.8613	138.12
22.8715	139.09
22.8817	138.65
22.8918	136.73
22.902	134.86
22.9121	133.36
22.9223	131.56
22.9325	129.96
22.9426	131.75
22.9528	131.04
22.963	128.52
22.9731	128.63
22.9833	126.40
22.9935	125.41
23.0036	124.43
23.0138	123.99
23.024	121.90
23.0341	122.02
23.0443	121.30
23.0545	119.67
23.0646	118.97
23.0748	116.46
23.0849	116.37
23.0951	115.74
23.1053	114.59
23.1154	112.83
23.1256	114.31
23.1358	112.73
23.1459	110.70
23.1561	110.42
23.1663	111.21
23.1764	107.84
23.1866	108.48
23.1968	108.38
23.2069	105.66
23.2171	106.88
23.2272	106.74
23.2374	103.62
23.2476	104.53
23.2577	103.50
23.2679	101.93
23.2781	100.39
23.2882	100.27
23.2984	101.26
23.3086	98.63
23.3187	95.52
23.3289	97.95
23.3391	97.24
23.3492	96.51
23.3594	95.07
23.3695	93.97
23.3797	94.13
23.3899	93.27
23.4	92.79
23.4102	90.83
23.4204	92.50
23.4305	91.16
23.4407	91.21
23.4509	90.89
23.461	89.77
23.4712	89.19
23.4814	87.52
23.4915	88.01
23.5017	86.59
23.5119	85.54
23.522	86.80
23.5322	85.05
23.5423	84.37
23.5525	84.90
23.5627	83.03
23.5728	83.80
23.583	82.36
23.5932	82.26
23.6033	82.10
23.6135	82.11
23.6237	81.60
23.6338	81.35
23.644	82.02
23.6542	79.66
23.6643	80.14
23.6745	79.91
23.6846	79.30
23.6948	77.98
23.705	78.53
23.7151	77.96
23.7253	77.99
23.7355	77.44
23.7456	78.05
23.7558	75.27
23.766	75.95
23.7761	75.47
23.7863	74.37
23.7965	76.29
23.8066	74.47
23.8168	75.28
23.827	73.44
23.8371	73.90
23.8473	73.87
23.8574	73.29
23.8676	71.94
23.8778	72.30
23.8879	71.59
23.8981	72.64
23.9083	72.12
23.9184	70.87
23.9286	69.60
23.9388	72.70
23.9489	69.89
23.9591	70.33
23.9693	69.76
23.9794	69.12
23.9896	69.76
23.9997	69.00
24.0099	69.84
24.0201	68.46
24.0302	68.98
24.0404	68.90
24.0506	67.22
24.0607	68.76
24.0709	68.18
24.0811	67.89
24.0912	67.74
24.1014	66.12
24.1116	66.47
24.1217	66.98
24.1319	66.14
24.1421	66.26
24.1522	65.92
24.1624	65.26
24.1725	64.66
24.1827	66.18
24.1929	64.01
24.203	65.28
24.2132	65.30
24.2234	64.79
24.2335	65.63
24.2437	64.94
24.2539	64.00
24.264	63.35
24.2742	63.66
24.2844	64.71
24.2945	63.48
24.3047	63.35
24.3148	62.87
24.325	62.79
24.3352	63.03
24.3453	62.08
24.3555	63.22
24.3657	63.58
24.3758	61.94
24.386	60.83
24.3962	62.01
24.4063	62.77
24.4165	62.08
24.4267	62.68
24.4368	60.62
24.447	60.98
24.4572	62.49
24.4673	61.20
24.4775	60.82
24.4876	60.12
24.4978	60.91
24.508	59.87
24.5181	61.89
24.5283	60.78
24.5385	60.95
24.5486	60.65
24.5588	61.43
24.569	59.89
24.5791	59.29
24.5893	59.98
24.5995	59.66
24.6096	59.26
24.6198	58.40
24.6299	60.08
24.6401	58.50
24.6503	59.46
24.6604	58.63
24.6706	59.49
24.6808	58.28
24.6909	58.67
24.7011	58.73
24.7113	58.56
24.7214	58.75
24.7316	59.05
24.7418	58.16
24.7519	57.55
24.7621	58.45
24.7723	58.15
24.7824	59.12
24.7926	58.21
24.8027	57.02
24.8129	57.43
24.8231	58.29
24.8332	56.86
24.8434	57.17
24.8536	56.23
24.8637	57.05
24.8739	57.27
24.8841	56.60
24.8942	56.52
24.9044	59.09
24.9146	56.88
24.9247	56.96
24.9349	55.25
24.945	56.57
24.9552	57.29
24.9654	56.55
24.9755	56.34
24.9857	56.98
24.9959	56.50
25.006	57.23
25.0162	56.21
25.0264	56.73
25.0365	55.45
25.0467	55.59
25.0569	57.25
25.067	55.65
25.0772	56.33
25.0874	55.90
25.0975	55.38
25.1077	55.79
25.1178	56.45
25.128	55.33
25.1382	53.99
25.1483	55.64
25.1585	55.70
25.1687	56.35
25.1788	54.91
25.189	55.15
25.1992	54.99
25.2093	55.58
25.2195	55.23
25.2297	55.18
25.2398	55.16
25.25	53.96
25.2601	55.79
25.2703	55.01
25.2805	54.98
25.2906	55.99
25.3008	54.45
25.311	55.24
25.3211	55.57
25.3313	54.46
25.3415	53.38
25.3516	55.80
25.3618	54.08
25.372	55.01
25.3821	54.78
25.3923	54.04
25.4024	54.15
25.4126	54.84
25.4228	54.49
25.4329	54.21
25.4431	53.80
25.4533	54.40
25.4634	53.15
25.4736	54.95
25.4838	54.38
25.4939	54.98
25.5041	53.73
25.5143	54.16
25.5244	53.34
25.5346	54.80
25.5448	53.94
25.5549	53.45
25.5651	53.10
25.5752	53.85
25.5854	54.13
25.5956	53.26
25.6057	53.17
25.6159	53.99
25.6261	52.95
25.6362	53.50
25.6464	54.15
25.6566	53.48
25.6667	51.90
25.6769	53.31
25.6871	54.00
25.6972	53.85
25.7074	52.96
25.7175	54.04
25.7277	52.71
25.7379	52.68
25.748	52.68
25.7582	54.13
25.7684	52.92
25.7785	52.64
25.7887	53.30
25.7989	52.25
25.809	51.91
25.8192	52.34
25.8294	52.92
25.8395	52.78
25.8497	51.66
25.8599	52.12
25.87	51.34
25.8802	50.93
25.8903	52.49
25.9005	52.76
25.9107	51.79
25.9208	50.07
25.931	52.46
25.9412	51.47
25.9513	51.43
25.9615	52.16
25.9717	52.37
25.9818	52.97
25.992	51.78
26.0022	51.90
26.0123	51.51
26.0225	50.68
26.0326	50.01
26.0428	51.17
26.053	50.48
26.0631	50.51
26.0733	50.34
26.0835	50.77
26.0936	50.62
26.1038	50.26
26.114	49.98
26.1241	50.21
26.1343	50.93
26.1445	50.90
26.1546	50.43
26.1648	49.55
26.175	50.29
26.1851	49.98
26.1953	50.62
26.2054	50.48
26.2156	49.68
26.2258	49.31
26.2359	50.02
26.2461	49.72
26.2563	51.23
26.2664	49.73
26.2766	48.55
26.2868	49.91
26.2969	50.29
26.3071	49.74
26.3173	49.46
26.3274	49.66
26.3376	50.17
26.3477	49.66
26.3579	48.55
26.3681	49.57
26.3782	49.09
26.3884	48.80
26.3986	49.12
26.4087	48.78
26.4189	49.10
26.4291	48.89
26.4392	49.06
26.4494	49.25
26.4596	48.63
26.4697	47.34
26.4799	48.62
26.4901	49.65
26.5002	48.91
26.5104	48.72
26.5205	48.84
26.5307	48.84
26.5409	47.41
26.551	48.23
26.5612	47.77
26.5714	48.18
26.5815	48.35
26.5917	47.55
26.6019	48.04
26.612	48.04
26.6222	48.02
26.6324	47.77
26.6425	47.49
26.6527	46.90
26.6628	47.30
26.673	48.26
26.6832	46.93
26.6933	46.97
26.7035	48.04
26.7137	47.89
26.7238	48.34
26.734	48.18
26.7442	47.93
26.7543	47.87
26.7645	46.93
26.7747	48.56
26.7848	48.23
26.795	47.91
26.8052	48.17
26.8153	47.62
26.8255	47.07
26.8356	47.86
26.8458	48.15
26.856	47.00
26.8661	48.21
26.8763	47.48
26.8865	47.60
26.8966	46.92
26.9068	47.70
26.917	46.54
26.9271	47.39
26.9373	46.97
26.9475	46.63
26.9576	47.23
26.9678	48.04
26.9779	45.98
26.9881	46.98
26.9983	47.15
27.0084	47.94
27.0186	47.25
27.0288	47.77
27.0389	47.26
27.0491	46.87
27.0593	47.35
27.0694	47.05
27.0796	47.98
27.0898	46.38
27.0999	47.71
27.1101	46.85
27.1202	46.76
27.1304	46.57
27.1406	47.80
27.1507	46.02
27.1609	47.73
27.1711	45.47
27.1812	46.24
27.1914	46.66
27.2016	46.71
27.2117	47.47
27.2219	46.46
27.2321	46.41
27.2422	46.29
27.2524	46.39
27.2626	46.27
27.2727	46.35
27.2829	46.87
27.293	47.10
27.3032	47.29
27.3134	46.97
27.3235	47.79
27.3337	47.49
27.3439	46.79
27.354	47.06
27.3642	46.25
27.3744	47.12
27.3845	46.45
27.3947	47.29
27.4049	47.82
27.415	47.84
27.4252	47.61
27.4353	47.40
27.4455	46.99
27.4557	46.72
27.4658	47.05
27.476	47.42
27.4862	48.15
27.4963	47.96
27.5065	47.58
27.5167	48.12
27.5268	47.54
27.537	47.99
27.5472	48.12
27.5573	47.87
27.5675	49.55
27.5777	47.74
27.5878	48.87
27.598	47.62
27.6081	48.05
27.6183	47.96
27.6285	47.71
27.6386	48.29
27.6488	48.35
27.659	48.99
27.6691	48.91
27.6793	49.13
27.6895	49.63
27.6996	49.59
27.7098	49.74
27.72	49.80
27.7301	49.96
27.7403	50.38
27.7504	50.21
27.7606	51.69
27.7708	50.70
27.7809	51.26
27.7911	52.48
27.8013	50.96
27.8114	50.78
27.8216	51.98
27.8318	53.58
27.8419	51.62
27.8521	53.23
27.8623	53.52
27.8724	52.88
27.8826	53.33
27.8928	54.41
27.9029	53.71
27.9131	53.88
27.9232	55.24
27.9334	55.44
27.9436	54.23
27.9537	55.24
27.9639	55.26
27.9741	56.59
27.9842	56.20
27.9944	56.80
28.0046	56.48
28.0147	57.15
28.0249	57.60
28.0351	57.65
28.0452	58.43
28.0554	58.57
28.0655	57.84
28.0757	60.40
28.0859	59.99
28.096	60.00
28.1062	60.50
28.1164	61.84
28.1265	61.63
28.1367	62.13
28.1469	62.54
28.157	63.95
28.1672	63.67
28.1774	64.22
28.1875	63.38
28.1977	63.92
28.2079	64.52
28.218	66.10
28.2282	66.99
28.2383	66.74
28.2485	66.05
28.2587	66.43
28.2688	67.74
28.279	67.17
28.2892	68.30
28.2993	68.30
28.3095	68.09
28.3197	70.32
28.3298	71.02
28.34	71.04
28.3502	70.42
28.3603	71.10
28.3705	71.93
28.3806	71.42
28.3908	72.45
28.401	71.24
28.4111	71.61
28.4213	72.51
28.4315	72.70
28.4416	72.43
28.4518	72.11
28.462	72.51
28.4721	74.18
28.4823	73.80
28.4925	72.77
28.5026	71.51
28.5128	73.91
28.523	73.24
28.5331	73.79
28.5433	73.94
28.5534	71.59
28.5636	72.72
28.5738	73.17
28.5839	73.53
28.5941	71.91
28.6043	74.40
28.6144	73.40
28.6246	73.10
28.6348	71.93
28.6449	72.52
28.6551	71.51
28.6653	70.79
28.6754	71.02
28.6856	71.26
28.6957	71.70
28.7059	69.27
28.7161	70.41
28.7262	69.45
28.7364	69.41
28.7466	68.51
28.7567	69.42
28.7669	68.23
28.7771	69.24
28.7872	68.17
28.7974	67.18
28.8076	65.63
28.8177	67.77
28.8279	67.10
28.8381	66.37
28.8482	65.90
28.8584	64.98
28.8685	64.70
28.8787	64.41
28.8889	64.32
28.899	62.57
28.9092	62.33
28.9194	63.22
28.9295	63.26
28.9397	62.00
28.9499	61.82
28.96	60.90
28.9702	60.68
28.9804	59.51
28.9905	60.04
29.0007	59.62
29.0108	59.55
29.021	59.57
29.0312	58.91
29.0413	58.24
29.0515	57.95
29.0617	57.99
29.0718	57.72
29.082	57.15
29.0922	56.59
29.1023	55.87
29.1125	55.71
29.1227	54.50
29.1328	55.11
29.143	54.90
29.1531	54.41
29.1633	52.61
29.1735	55.01
29.1836	54.39
29.1938	52.95
29.204	54.31
29.2141	52.49
29.2243	52.04
29.2345	51.86
29.2446	52.38
29.2548	51.71
29.265	51.96
29.2751	51.15
29.2853	51.41
29.2955	51.10
29.3056	50.43
29.3158	50.48
29.3259	49.91
29.3361	50.16
29.3463	49.15
29.3564	49.39
29.3666	49.91
29.3768	48.97
29.3869	49.24
29.3971	48.96
29.4073	47.54
29.4174	48.66
29.4276	48.65
29.4378	47.35
29.4479	48.31
29.4581	47.43
29.4682	47.30
29.4784	47.08
29.4886	46.78
29.4987	45.72
29.5089	47.82
29.5191	46.66
29.5292	46.39
29.5394	46.29
29.5496	45.77
29.5597	45.54
29.5699	45.85
29.5801	45.30
29.5902	44.89
29.6004	45.23
29.6106	45.15
29.6207	44.82
29.6309	45.20
29.641	45.24
29.6512	44.33
29.6614	44.08
29.6715	46.21
29.6817	44.10
29.6919	44.09
29.702	43.87
29.7122	42.85
29.7224	43.94
29.7325	44.49
29.7427	44.20
29.7529	44.09
29.763	44.20
29.7732	44.09
29.7833	43.29
29.7935	43.82
29.8037	44.29
29.8138	43.39
29.824	43.87
29.8342	42.26
29.8443	41.70
29.8545	42.91
29.8647	41.96
29.8748	43.11
29.885	42.74
29.8952	43.67
29.9053	43.13
29.9155	43.27
29.9257	41.77
29.9358	43.12
29.946	43.76
29.9561	42.16
29.9663	42.36
29.9765	42.74
29.9866	42.29
29.9968	43.04
30.007	42.59
30.0171	42.39
30.0273	42.21
30.0375	40.77
30.0476	41.87
30.0578	41.09
30.068	41.68
30.0781	42.35
30.0883	42.44
30.0984	41.59
30.1086	41.10
30.1188	41.96
30.1289	42.40
30.1391	40.96
30.1493	40.68
30.1594	41.75
30.1696	40.73
30.1798	41.38
30.1899	41.41
30.2001	39.85
30.2103	41.18
30.2204	40.80
30.2306	40.66
30.2408	40.08
30.2509	39.93
30.2611	39.45
30.2712	39.99
30.2814	39.97
30.2916	39.08
30.3017	40.29
30.3119	40.21
30.3221	38.96
30.3322	39.35
30.3424	39.86
30.3526	38.66
30.3627	39.51
30.3729	39.88
30.3831	38.20
30.3932	39.15
30.4034	38.74
30.4135	39.73
30.4237	38.80
30.4339	39.21
30.444	38.07
30.4542	38.06
30.4644	37.25
30.4745	38.14
30.4847	37.90
30.4949	38.08
30.505	37.74
30.5152	36.98
30.5254	37.54
30.5355	36.62
30.5457	37.60
30.5559	36.84
30.566	36.15
30.5762	36.55
30.5863	36.02
30.5965	36.01
30.6067	36.46
30.6168	36.09
30.627	37.07
30.6372	35.93
30.6473	36.34
30.6575	35.71
30.6677	36.38
30.6778	36.12
30.688	35.93
30.6982	35.51
30.7083	35.88
30.7185	35.04
30.7286	35.62
30.7388	35.30
30.749	35.61
30.7591	34.62
30.7693	35.65
30.7795	34.63
30.7896	35.88
30.7998	35.65
30.81	34.71
30.8201	35.65
30.8303	36.08
30.8405	34.48
30.8506	34.96
30.8608	34.70
30.871	34.96
30.8811	35.36
30.8913	34.33
30.9014	33.65
30.9116	34.29
30.9218	34.13
30.9319	35.43
30.9421	34.09
30.9523	35.18
30.9624	34.48
30.9726	34.90
30.9828	34.40
30.9929	33.67
31.0031	34.20
31.0133	34.55
31.0234	32.77
31.0336	34.09
31.0437	34.41
31.0539	33.12
31.0641	33.57
31.0742	33.39
31.0844	33.20
31.0946	33.76
31.1047	33.35
31.1149	32.99
31.1251	33.97
31.1352	33.90
31.1454	32.87
31.1556	32.98
31.1657	33.21
31.1759	33.59
31.186	33.52
31.1962	33.72
31.2064	32.61
31.2165	33.60
31.2267	33.82
31.2369	33.12
31.247	32.91
31.2572	33.69
31.2674	32.88
31.2775	32.37
31.2877	32.73
31.2979	32.83
31.308	32.76
31.3182	32.25
31.3284	32.64
31.3385	33.01
31.3487	33.85
31.3588	33.07
31.369	31.99
31.3792	32.94
31.3893	33.05
31.3995	32.54
31.4097	32.76
31.4198	32.37
31.43	32.59
31.4402	31.56
31.4503	32.89
31.4605	33.19
31.4707	31.82
31.4808	31.85
31.491	32.50
31.5011	32.60
31.5113	32.59
31.5215	32.76
31.5316	32.66
31.5418	32.49
31.552	32.83
31.5621	32.80
31.5723	31.43
31.5825	32.59
31.5926	32.62
31.6028	31.96
31.613	32.21
31.6231	32.98
31.6333	32.31
31.6435	32.77
31.6536	32.32
31.6638	32.18
31.6739	32.17
31.6841	33.39
31.6943	32.20
31.7044	31.76
31.7146	31.98
31.7248	31.91
31.7349	32.09
31.7451	32.69
31.7553	31.75
31.7654	31.53
31.7756	32.32
31.7858	32.12
31.7959	32.18
31.8061	31.68
31.8162	32.35
31.8264	31.73
31.8366	31.71
31.8467	32.21
31.8569	31.80
31.8671	32.13
31.8772	32.05
31.8874	32.26
31.8976	32.04
31.9077	32.34
31.9179	32.49
31.9281	32.20
31.9382	32.52
31.9484	31.36
31.9586	32.56
31.9687	32.25
31.9789	32.52
31.989	31.73
31.9992	32.60
32.0094	32.46
32.0195	31.79
32.0297	32.29
32.0399	32.36
32.05	33.49
32.0602	31.71
32.0704	32.01
32.0805	32.97
32.0907	32.14
32.1009	32.90
32.111	33.34
32.1212	32.72
32.1313	32.79
32.1415	33.77
32.1517	32.94
32.1618	32.62
32.172	31.69
32.1822	32.79
32.1923	34.28
32.2025	33.16
32.2127	31.86
32.2228	32.87
32.233	33.03
32.2432	32.96
32.2533	32.50
32.2635	33.24
32.2737	32.98
32.2838	32.61
32.294	33.35
32.3041	33.01
32.3143	33.02
32.3245	33.12
32.3346	33.27
32.3448	33.09
32.355	33.33
32.3651	33.13
32.3753	32.66
32.3855	33.35
32.3956	32.90
32.4058	32.90
32.416	33.07
32.4261	32.65
32.4363	33.18
32.4464	32.91
32.4566	31.92
32.4668	32.38
32.4769	33.15
32.4871	32.95
32.4973	33.57
32.5074	32.71
32.5176	32.51
32.5278	32.99
32.5379	33.42
32.5481	32.94
32.5583	33.57
32.5684	33.52
32.5786	33.91
32.5888	31.61
32.5989	32.93
32.6091	32.04
32.6192	33.52
32.6294	32.88
32.6396	32.39
32.6497	32.27
32.6599	32.35
32.6701	32.37
32.6802	33.56
32.6904	33.10
32.7006	32.58
32.7107	33.47
32.7209	33.52
32.7311	32.09
32.7412	32.23
32.7514	32.95
32.7615	31.77
32.7717	32.01
32.7819	32.69
32.792	32.50
32.8022	33.53
32.8124	32.55
32.8225	33.24
32.8327	32.59
32.8429	32.79
32.853	32.47
32.8632	31.59
32.8734	32.58
32.8835	31.97
32.8937	32.46
32.9039	32.54
32.914	32.41
32.9242	32.27
32.9343	33.27
32.9445	32.35
32.9547	32.10
32.9648	32.71
32.975	33.10
32.9852	32.32
32.9953	33.14
33.0055	32.85
33.0157	31.77
33.0258	32.64
33.036	32.96
33.0462	32.49
33.0563	33.20
33.0665	32.92
33.0766	32.80
33.0868	33.35
33.097	32.15
33.1071	32.77
33.1173	33.29
33.1275	32.53
33.1376	31.93
33.1478	32.45
33.158	32.21
33.1681	32.64
33.1783	32.79
33.1885	32.81
33.1986	32.70
33.2088	32.62
33.2189	32.22
33.2291	32.28
33.2393	33.45
33.2494	32.71
33.2596	33.21
33.2698	33.01
33.2799	32.71
33.2901	33.15
33.3003	33.52
33.3104	32.24
33.3206	32.67
33.3308	33.07
33.3409	32.88
33.3511	32.61
33.3613	32.23
33.3714	32.68
33.3816	33.11
33.3917	33.10
33.4019	32.41
33.4121	33.09
33.4222	32.93
33.4324	32.66
33.4426	33.32
33.4527	32.79
33.4629	32.41
33.4731	32.51
33.4832	32.33
33.4934	32.02
33.5036	33.04
33.5137	32.14
33.5239	32.09
33.534	32.58
33.5442	31.55
33.5544	31.52
33.5645	31.63
33.5747	32.42
33.5849	31.64
33.595	31.99
33.6052	32.48
33.6154	31.65
33.6255	31.64
33.6357	31.61
33.6459	30.88
33.656	31.40
33.6662	30.83
33.6764	31.27
33.6865	31.08
33.6967	31.42
33.7068	30.98
33.717	30.93
33.7272	30.59
33.7373	30.51
33.7475	30.32
33.7577	30.86
33.7678	30.63
33.778	30.88
33.7882	30.30
33.7983	29.98
33.8085	29.72
33.8187	29.71
33.8288	29.85
33.839	29.66
33.8491	29.38
33.8593	29.34
33.8695	29.36
33.8796	29.72
33.8898	29.48
33.9	29.93
33.9101	29.20
33.9203	28.17
33.9305	29.26
33.9406	28.80
33.9508	29.14
33.961	28.36
33.9711	27.41
33.9813	28.44
33.9915	28.60
34.0016	27.87
34.0118	27.40
34.0219	27.57
34.0321	28.32
34.0423	28.19
34.0524	27.91
34.0626	28.48
34.0728	27.49
34.0829	27.29
34.0931	26.45
34.1033	27.90
34.1134	27.01
34.1236	27.61
34.1338	27.68
34.1439	27.67
34.1541	26.41
34.1642	27.37
34.1744	27.11
34.1846	27.05
34.1947	27.12
34.2049	27.48
34.2151	26.83
34.2252	26.96
34.2354	27.04
34.2456	26.78
34.2557	27.10
34.2659	26.36
34.2761	27.29
34.2862	27.44
34.2964	26.32
34.3066	26.62
34.3167	26.30
34.3269	26.37
34.337	26.36
34.3472	27.24
34.3574	26.77
34.3675	26.63
34.3777	26.49
34.3879	26.80
34.398	26.34
34.4082	26.74
34.4184	26.41
34.4285	26.60
34.4387	26.51
34.4489	25.62
34.459	26.48
34.4692	26.30
34.4793	26.51
34.4895	26.24
34.4997	26.27
34.5098	26.46
34.52	26.71
34.5302	26.04
34.5403	26.12
34.5505	25.54
34.5607	26.27
34.5708	25.88
34.581	25.32
34.5912	26.33
34.6013	25.80
34.6115	25.32
34.6217	25.07
34.6318	25.69
34.642	25.30
34.6521	25.77
34.6623	26.22
34.6725	25.46
34.6826	26.45
34.6928	25.52
34.703	25.84
34.7131	25.77
34.7233	25.87
34.7335	25.04
34.7436	25.68
34.7538	25.55
34.764	25.74
34.7741	25.20
34.7843	25.65
34.7944	25.85
34.8046	25.68
34.8148	25.29
34.8249	25.16
34.8351	26.26
34.8453	24.79
34.8554	25.12
34.8656	25.32
34.8758	25.70
34.8859	25.59
34.8961	26.07
34.9063	25.53
34.9164	25.88
34.9266	25.38
34.9367	25.16
34.9469	24.74
34.9571	24.95
34.9672	24.99
34.9774	25.88
34.9876	24.85
34.9977	25.26
35.0079	25.16
35.0181	25.56
35.0282	25.41
35.0384	25.05
35.0486	25.20
35.0587	24.47
35.0689	24.82
35.0791	25.04
35.0892	24.85
35.0994	25.37
35.1095	25.75
35.1197	25.71
35.1299	24.87
35.14	25.14
35.1502	24.34
35.1604	25.11
35.1705	24.63
35.1807	24.46
35.1909	25.28
35.201	25.32
35.2112	24.94
35.2214	24.95
35.2315	24.16
35.2417	24.92
35.2518	24.87
35.262	24.54
35.2722	24.13
35.2823	25.52
35.2925	24.52
35.3027	25.08
35.3128	24.61
35.323	25.23
35.3332	24.15
35.3433	24.90
35.3535	24.69
35.3637	23.87
35.3738	24.26
35.384	24.82
35.3942	24.56
35.4043	23.66
35.4145	25.07
35.4246	24.71
35.4348	23.96
35.445	24.32
35.4551	24.74
35.4653	24.84
35.4755	24.95
35.4856	24.95
35.4958	23.95
35.506	24.20
35.5161	25.04
35.5263	24.70
35.5365	24.91
35.5466	23.89
35.5568	24.21
35.5669	24.68
35.5771	24.66
35.5873	23.53
35.5974	24.77
35.6076	24.44
35.6178	24.11
35.6279	24.13
35.6381	24.19
35.6483	24.49
35.6584	24.66
35.6686	24.06
35.6788	24.24
35.6889	24.14
35.6991	23.72
35.7093	24.32
35.7194	24.07
35.7296	23.32
35.7397	23.87
35.7499	24.13
35.7601	24.09
35.7702	24.17
35.7804	24.43
35.7906	24.99
35.8007	24.57
35.8109	23.62
35.8211	24.17
35.8312	25.01
35.8414	23.82
35.8516	24.77
35.8617	24.30
35.8719	24.29
35.882	24.45
35.8922	23.76
35.9024	24.30
35.9125	23.82
35.9227	24.01
35.9329	23.79
35.943	23.75
35.9532	23.68
35.9634	24.76
35.9735	24.23
35.9837	24.76
35.9939	23.55
36.004	24.49
36.0142	24.27
36.0244	23.92
36.0345	23.98
36.0447	23.83
36.0548	23.58
36.065	24.10
36.0752	23.93
36.0853	24.42
36.0955	24.25
36.1057	23.41
36.1158	24.09
36.126	23.91
36.1362	24.15
36.1463	24.17
36.1565	24.15
36.1667	24.09
36.1768	24.42
36.187	24.68
36.1971	24.22
36.2073	24.43
36.2175	23.88
36.2276	24.13
36.2378	23.91
36.248	24.55
36.2581	23.67
36.2683	23.49
36.2785	24.21
36.2886	23.89
36.2988	24.17
36.309	24.18
36.3191	24.30
36.3293	23.79
36.3395	24.21
36.3496	24.19
36.3598	24.13
36.3699	23.63
36.3801	23.85
36.3903	23.95
36.4004	23.51
36.4106	23.66
36.4208	24.33
36.4309	23.79
36.4411	24.77
36.4513	24.10
36.4614	24.09
36.4716	24.23
36.4818	23.35
36.4919	24.39
36.5021	24.26
36.5122	23.78
36.5224	24.57
36.5326	24.02
36.5427	24.52
36.5529	24.42
36.5631	24.29
36.5732	24.91
36.5834	24.05
36.5936	24.15
36.6037	24.63
36.6139	24.12
36.6241	24.23
36.6342	24.42
36.6444	24.35
36.6546	24.17
36.6647	24.31
36.6749	24.10
36.685	25.07
36.6952	24.94
36.7054	24.27
36.7155	24.57
36.7257	24.85
36.7359	24.20
36.746	25.06
36.7562	24.18
36.7664	24.16
36.7765	24.46
36.7867	25.40
36.7969	24.78
36.807	24.79
36.8172	24.43
36.8273	24.90
36.8375	24.79
36.8477	24.09
36.8578	23.93
36.868	24.70
36.8782	25.40
36.8883	25.09
36.8985	24.45
36.9087	25.26
36.9188	24.66
36.929	24.77
36.9392	26.01
36.9493	24.79
36.9595	24.99
36.9696	25.38
36.9798	25.06
36.99	24.55
37.0001	24.59
37.0103	24.58
37.0205	25.34
37.0306	25.24
37.0408	25.48
37.051	25.49
37.0611	24.95
37.0713	24.79
37.0815	25.55
37.0916	24.76
37.1018	25.63
37.112	25.44
37.1221	24.69
37.1323	25.14
37.1424	25.59
37.1526	25.29
37.1628	25.94
37.1729	25.72
37.1831	25.46
37.1933	24.91
37.2034	25.49
37.2136	25.16
37.2238	25.48
37.2339	24.62
37.2441	25.80
37.2543	25.52
37.2644	25.85
37.2746	25.34
37.2847	25.54
37.2949	25.97
37.3051	25.67
37.3152	25.32
37.3254	25.62
37.3356	25.42
37.3457	25.88
37.3559	25.66
37.3661	25.52
37.3762	25.43
37.3864	25.77
37.3966	27.21
37.4067	25.32
37.4169	26.83
37.4271	25.55
37.4372	25.59
37.4474	26.52
37.4575	26.10
37.4677	26.95
37.4779	25.71
37.488	26.44
37.4982	26.58
37.5084	26.43
37.5185	26.99
37.5287	26.12
37.5389	26.60
37.549	27.38
37.5592	26.27
37.5694	27.26
37.5795	26.14
37.5897	27.16
37.5998	26.89
37.61	27.46
37.6202	26.43
37.6303	27.28
37.6405	26.38
37.6507	27.03
37.6608	27.04
37.671	26.29
37.6812	26.20
37.6913	26.27
37.7015	27.70
37.7117	26.97
37.7218	27.08
37.732	27.64
37.7422	26.72
37.7523	27.84
37.7625	26.99
37.7726	28.22
37.7828	27.16
37.793	27.43
37.8031	27.48
37.8133	28.21
37.8235	27.61
37.8336	28.69
37.8438	27.67
37.854	27.92
37.8641	28.25
37.8743	27.89
37.8845	28.29
37.8946	27.13
37.9048	28.72
37.9149	27.88
37.9251	27.46
37.9353	27.96
37.9454	28.29
37.9556	27.69
37.9658	28.69
37.9759	29.00
37.9861	28.77
37.9963	29.31
38.0064	29.22
38.0166	28.71
38.0268	29.19
38.0369	28.90
38.0471	28.27
38.0573	29.13
38.0674	29.93
38.0776	29.27
38.0877	29.85
38.0979	29.41
38.1081	28.90
38.1182	29.28
38.1284	29.73
38.1386	29.42
38.1487	28.90
38.1589	29.27
38.1691	28.59
38.1792	29.12
38.1894	29.90
38.1996	28.71
38.2097	30.00
38.2199	29.35
38.23	30.02
38.2402	29.18
38.2504	30.41
38.2605	30.21
38.2707	30.23
38.2809	30.61
38.291	29.73
38.3012	30.74
38.3114	30.61
38.3215	30.54
38.3317	30.82
38.3419	30.13
38.352	30.05
38.3622	30.16
38.3724	30.45
38.3825	30.14
38.3927	31.05
38.4028	30.93
38.413	30.34
38.4232	30.54
38.4333	31.00
38.4435	30.65
38.4537	30.80
38.4638	31.19
38.474	31.90
38.4842	31.52
38.4943	30.90
38.5045	30.88
38.5147	31.23
38.5248	31.32
38.535	30.57
38.5451	31.30
38.5553	31.28
38.5655	30.97
38.5756	31.15
38.5858	31.17
38.596	31.05
38.6061	31.88
38.6163	31.15
38.6265	30.27
38.6366	31.09
38.6468	30.93
38.657	30.94
38.6671	31.07
38.6773	31.23
38.6875	30.92
38.6976	31.13
38.7078	30.88
38.7179	29.91
38.7281	30.97
38.7383	31.01
38.7484	30.95
38.7586	31.18
38.7688	31.24
38.7789	30.81
38.7891	30.42
38.7993	30.79
38.8094	30.48
38.8196	29.79
38.8298	30.35
38.8399	30.47
38.8501	30.96
38.8602	30.79
38.8704	30.27
38.8806	29.64
38.8907	30.48
38.9009	29.77
38.9111	29.89
38.9212	31.51
38.9314	30.66
38.9416	29.88
38.9517	30.78
38.9619	29.78
38.9721	30.51
38.9822	29.52
38.9924	29.58
39.0025	30.26
39.0127	30.15
39.0229	29.69
39.033	30.02
39.0432	29.73
39.0534	28.98
39.0635	28.55
39.0737	29.14
39.0839	29.93
39.094	29.53
39.1042	29.20
39.1144	28.68
39.1245	29.00
39.1347	29.35
39.1449	28.87
39.155	29.09
39.1652	28.95
39.1753	28.54
39.1855	28.68
39.1957	28.80
39.2058	29.45
39.216	27.82
39.2262	29.00
39.2363	28.91
39.2465	28.56
39.2567	29.01
39.2668	28.82
39.277	28.21
39.2872	28.09
39.2973	27.73
39.3075	28.44
39.3176	27.45
39.3278	28.11
39.338	28.46
39.3481	27.79
39.3583	28.32
39.3685	27.91
39.3786	27.48
39.3888	27.98
39.399	27.76
39.4091	27.20
39.4193	27.16
39.4295	27.49
39.4396	27.18
39.4498	27.27
39.46	27.25
39.4701	27.47
39.4803	27.21
39.4904	27.46
39.5006	26.68
39.5108	27.07
39.5209	26.70
39.5311	26.17
39.5413	28.05
39.5514	26.97
39.5616	26.73
39.5718	26.84
39.5819	26.91
39.5921	27.05
39.6023	26.83
39.6124	26.48
39.6226	26.77
39.6327	26.59
39.6429	26.29
39.6531	26.10
39.6632	26.11
39.6734	26.04
39.6836	27.00
39.6937	26.51
39.7039	26.21
39.7141	26.16
39.7242	26.15
39.7344	26.11
39.7446	25.66
39.7547	26.09
39.7649	26.01
39.7751	25.77
39.7852	26.73
39.7954	26.89
39.8055	26.05
39.8157	25.57
39.8259	25.84
39.836	25.81
39.8462	26.14
39.8564	26.04
39.8665	25.84
39.8767	25.87
39.8869	25.82
39.897	25.99
39.9072	26.01
39.9174	26.12
39.9275	25.10
39.9377	25.96
39.9478	25.52
39.958	25.60
39.9682	25.74
39.9783	24.84
39.9885	24.90
39.9987	25.18
40.0088	26.37
