5.0023	50.10
5.0125	49.16
5.0226	48.87
5.0328	47.55
5.043	47.34
5.0531	47.63
5.0633	46.29
5.0735	46.51
5.0836	45.95
5.0938	43.74
5.1039	43.35
5.1141	44.09
5.1243	42.20
5.1344	42.59
5.1446	42.68
5.1548	41.83
5.1649	40.65
5.1751	40.13
5.1853	39.66
5.1954	40.09
5.2056	38.87
5.2158	37.35
5.2259	38.26
5.2361	37.64
5.2462	36.87
5.2564	36.84
5.2666	36.29
5.2767	35.26
5.2869	35.91
5.2971	35.40
5.3072	34.72
5.3174	34.42
5.3276	34.09
5.3377	33.83
5.3479	33.27
5.3581	34.04
5.3682	32.70
5.3784	31.93
5.3886	32.42
5.3987	31.94
5.4089	31.77
5.419	31.56
5.4292	30.89
5.4394	30.85
5.4495	29.99
5.4597	30.87
5.4699	30.23
5.48	30.01
5.4902	29.88
5.5004	28.97
5.5105	28.88
5.5207	28.24
5.5309	27.75
5.541	28.73
5.5512	27.90
5.5613	27.51
5.5715	26.87
5.5817	27.54
5.5918	26.91
5.602	26.54
5.6122	26.59
5.6223	26.38
5.6325	26.70
5.6427	26.33
5.6528	26.01
5.663	26.83
5.6732	26.07
5.6833	25.77
5.6935	25.74
5.7036	25.07
5.7138	24.85
5.724	25.49
5.7341	24.85
5.7443	24.74
5.7545	24.02
5.7646	24.82
5.7748	24.76
5.785	24.07
5.7951	24.77
5.8053	24.10
5.8155	24.72
5.8256	24.40
5.8358	24.09
5.846	24.38
5.8561	23.68
5.8663	24.01
5.8764	23.80
5.8866	24.32
5.8968	23.29
5.9069	23.54
5.9171	23.54
5.9273	23.74
5.9374	24.51
5.9476	24.09
5.9578	23.57
5.9679	23.54
5.9781	23.51
5.9883	23.35
5.9984	23.51
6.0086	23.72
6.0187	23.63
6.0289	23.77
6.0391	23.38
6.0492	23.66
6.0594	22.86
6.0696	22.91
6.0797	22.79
6.0899	23.34
6.1001	22.82
6.1102	23.01
6.1204	22.55
6.1306	23.70
6.1407	23.16
6.1509	23.45
6.1611	22.96
6.1712	22.88
6.1814	22.88
6.1915	23.66
6.2017	22.99
6.2119	22.48
6.222	23.40
6.2322	22.10
6.2424	22.76
6.2525	23.07
6.2627	23.42
6.2729	23.15
6.283	22.78
6.2932	22.54
6.3034	22.50
6.3135	22.88
6.3237	22.83
6.3338	22.73
6.344	22.71
6.3542	22.91
6.3643	22.62
6.3745	23.80
6.3847	23.15
6.3948	22.85
6.405	22.48
6.4152	22.65
6.4253	23.30
6.4355	22.71
6.4457	22.24
6.4558	23.34
6.466	22.85
6.4762	23.23
6.4863	23.12
6.4965	22.99
6.5066	23.03
6.5168	22.65
6.527	23.79
6.5371	22.68
6.5473	22.58
6.5575	23.29
6.5676	22.98
6.5778	22.26
6.588	22.90
6.5981	22.76
6.6083	22.85
6.6185	23.01
6.6286	22.78
6.6388	23.41
6.6489	22.42
6.6591	23.17
6.6693	23.07
6.6794	23.21
6.6896	22.98
6.6998	23.32
6.7099	22.78
6.7201	22.96
6.7303	22.95
6.7404	23.15
6.7506	23.68
6.7608	22.80
6.7709	23.45
6.7811	23.60
6.7913	23.41
6.8014	23.23
6.8116	23.96
6.8217	23.51
6.8319	22.93
6.8421	23.37
6.8522	23.13
6.8624	23.61
6.8726	23.27
6.8827	23.40
6.8929	24.46
6.9031	22.36
6.9132	23.68
6.9234	23.94
6.9336	23.88
6.9437	23.39
6.9539	22.98
6.964	23.70
6.9742	24.20
6.9844	23.47
6.9945	23.41
7.0047	23.71
7.0149	23.32
7.025	23.66
7.0352	23.93
7.0454	23.36
7.0555	23.68
7.0657	24.55
7.0759	24.18
7.086	23.84
7.0962	24.54
7.1064	24.16
7.1165	23.21
7.1267	23.98
7.1368	23.80
7.147	24.41
7.1572	23.42
7.1673	24.05
7.1775	24.22
7.1877	24.17
7.1978	23.70
7.208	24.35
7.2182	23.33
7.2283	23.60
7.2385	23.79
7.2487	23.68
7.2588	24.35
7.269	24.20
7.2791	23.66
7.2893	24.48
7.2995	24.34
7.3096	23.63
7.3198	23.79
7.33	23.87
7.3401	24.23
7.3503	24.01
7.3605	23.79
7.3706	24.51
7.3808	24.60
7.391	24.03
7.4011	24.86
7.4113	24.27
7.4215	23.98
7.4316	24.49
7.4418	24.52
7.4519	24.76
7.4621	25.38
7.4723	24.31
7.4824	24.74
7.4926	25.55
7.5028	24.55
7.5129	24.70
7.5231	25.16
7.5333	24.88
7.5434	24.70
7.5536	24.17
7.5638	24.45
7.5739	24.74
7.5841	24.51
7.5942	25.63
7.6044	24.01
7.6146	24.73
7.6247	24.79
7.6349	24.69
7.6451	24.80
7.6552	24.98
7.6654	24.40
7.6756	24.89
7.6857	24.48
7.6959	24.79
7.7061	24.69
7.7162	25.93
7.7264	25.12
7.7365	25.07
7.7467	25.49
7.7569	24.51
7.767	25.50
7.7772	24.74
7.7874	24.54
7.7975	25.74
7.8077	24.80
7.8179	25.20
7.828	26.05
7.8382	25.49
7.8484	25.74
7.8585	25.30
7.8687	25.57
7.8789	25.10
7.889	25.61
7.8992	25.88
7.9093	25.70
7.9195	25.80
7.9297	25.79
7.9398	25.63
7.95	25.34
7.9602	25.27
7.9703	25.48
7.9805	24.87
7.9907	25.13
8.0008	25.36
8.011	25.20
8.0212	24.93
8.0313	25.07
8.0415	25.48
8.0516	25.84
8.0618	25.62
8.072	25.68
8.0821	26.62
8.0923	25.70
8.1025	26.90
8.1126	25.74
8.1228	25.31
8.133	26.76
8.1431	25.95
8.1533	25.60
8.1635	25.95
8.1736	27.24
8.1838	26.09
8.194	26.18
8.2041	26.71
8.2143	26.65
8.2244	26.46
8.2346	26.53
8.2448	26.23
8.2549	26.40
8.2651	26.19
8.2753	26.35
8.2854	26.85
8.2956	26.45
8.3058	25.99
8.3159	26.09
8.3261	26.84
8.3363	26.66
8.3464	25.62
8.3566	26.43
8.3667	26.59
8.3769	25.99
8.3871	26.36
8.3972	26.69
8.4074	26.45
8.4176	26.60
8.4277	26.99
8.4379	27.11
8.4481	27.23
8.4582	26.49
8.4684	26.92
8.4786	26.98
8.4887	26.90
8.4989	26.15
8.5091	26.91
8.5192	26.72
8.5294	27.76
8.5395	27.62
8.5497	26.62
8.5599	27.15
8.57	26.99
8.5802	26.57
8.5904	27.26
8.6005	26.55
8.6107	27.02
8.6209	26.84
8.631	27.45
8.6412	26.62
8.6514	27.38
8.6615	28.18
8.6717	26.97
8.6818	26.70
8.692	27.98
8.7022	27.18
8.7123	28.26
8.7225	28.00
8.7327	26.96
8.7428	27.15
8.753	27.78
8.7632	26.84
8.7733	26.96
8.7835	27.49
8.7937	27.04
8.8038	28.16
8.814	27.88
8.8242	26.79
8.8343	27.31
8.8445	27.77
8.8546	27.95
8.8648	27.84
8.875	27.27
8.8851	27.45
8.8953	27.99
8.9055	27.82
8.9156	27.30
8.9258	29.51
8.936	28.36
8.9461	27.21
8.9563	28.80
8.9665	28.36
8.9766	27.84
8.9868	28.30
8.9969	27.19
9.0071	27.82
9.0173	29.09
9.0274	28.71
9.0376	28.57
9.0478	27.67
9.0579	27.98
9.0681	27.43
9.0783	28.24
9.0884	28.11
9.0986	28.36
9.1088	29.17
9.1189	28.48
9.1291	28.93
9.1393	28.83
9.1494	27.74
9.1596	29.42
9.1697	28.40
9.1799	28.90
9.1901	27.67
9.2002	28.85
9.2104	28.95
9.2206	28.74
9.2307	29.14
9.2409	29.36
9.2511	28.26
9.2612	28.32
9.2714	29.45
9.2816	28.31
9.2917	28.74
9.3019	28.49
9.312	28.91
9.3222	28.85
9.3324	28.99
9.3425	28.52
9.3527	29.96
9.3629	27.99
9.373	29.09
9.3832	28.63
9.3934	29.54
9.4035	28.71
9.4137	29.48
9.4239	29.41
9.434	29.45
9.4442	29.57
9.4544	29.02
9.4645	29.59
9.4747	29.59
9.4848	29.46
9.495	29.51
9.5052	29.85
9.5153	29.54
9.5255	29.39
9.5357	30.60
9.5458	30.16
9.556	28.48
9.5662	29.27
9.5763	29.75
9.5865	29.09
9.5967	29.95
9.6068	29.51
9.617	29.60
9.6271	30.63
9.6373	29.58
9.6475	29.16
9.6576	30.15
9.6678	30.15
9.678	29.24
9.6881	30.02
9.6983	29.80
9.7085	30.37
9.7186	30.50
9.7288	30.07
9.739	29.40
9.7491	29.79
9.7593	29.30
9.7694	29.30
9.7796	30.12
9.7898	30.66
9.7999	29.83
9.8101	29.98
9.8203	30.60
9.8304	29.07
9.8406	30.62
9.8508	29.89
9.8609	29.05
9.8711	31.16
9.8813	29.76
9.8914	30.05
9.9016	30.13
9.9118	30.56
9.9219	29.55
9.9321	30.55
9.9422	29.75
9.9524	30.84
9.9626	29.82
9.9727	30.52
9.9829	30.44
9.9931	30.38
10.0032	30.38
10.0134	30.46
10.0236	30.73
10.0337	29.68
10.0439	30.16
10.0541	30.99
10.0642	30.31
10.0744	31.31
10.0845	31.16
10.0947	30.84
10.1049	30.92
10.115	30.85
10.1252	31.17
10.1354	31.06
10.1455	31.55
10.1557	30.80
10.1659	30.49
10.176	30.25
10.1862	30.60
10.1964	31.32
10.2065	30.34
10.2167	30.96
10.2269	29.46
10.237	31.05
10.2472	31.63
10.2573	30.60
10.2675	31.01
10.2777	30.86
10.2878	30.65
10.298	30.67
10.3082	31.15
10.3183	31.64
10.3285	31.84
10.3387	31.16
10.3488	30.54
10.359	31.59
10.3692	31.15
10.3793	30.82
10.3895	31.49
10.3996	30.68
10.4098	31.33
10.42	31.36
10.4301	32.18
10.4403	31.33
10.4505	30.74
10.4606	32.37
10.4708	31.71
10.481	31.43
10.4911	30.93
10.5013	32.05
10.5115	31.69
10.5216	30.68
10.5318	31.88
10.542	31.27
10.5521	31.42
10.5623	32.05
10.5724	31.14
10.5826	31.45
10.5928	32.15
10.6029	32.05
10.6131	31.88
10.6233	31.68
10.6334	32.82
10.6436	32.12
10.6538	33.46
10.6639	32.85
10.6741	31.92
10.6843	33.08
10.6944	32.54
10.7046	32.50
10.7147	32.83
10.7249	32.53
10.7351	32.37
10.7452	32.61
10.7554	32.54
10.7656	32.38
10.7757	32.29
10.7859	32.93
10.7961	32.37
10.8062	32.82
10.8164	33.00
10.8266	32.51
10.8367	32.68
10.8469	32.22
10.8571	32.27
10.8672	33.34
10.8774	32.21
10.8875	32.36
10.8977	32.38
10.9079	31.71
10.918	32.52
10.9282	32.37
10.9384	33.12
10.9485	31.97
10.9587	33.07
10.9689	32.99
10.979	32.51
10.9892	31.94
10.9994	33.13
11.0095	32.08
11.0197	33.55
11.0298	33.57
11.04	32.19
11.0502	33.41
11.0603	33.45
11.0705	33.32
11.0807	33.71
11.0908	33.04
11.101	33.04
11.1112	33.41
11.1213	33.65
11.1315	33.41
11.1417	32.53
11.1518	32.98
11.162	33.33
11.1722	32.82
11.1823	33.15
11.1925	33.77
11.2026	33.57
11.2128	34.22
11.223	33.95
11.2331	33.10
11.2433	33.20
11.2535	33.69
11.2636	34.77
11.2738	33.55
11.284	34.13
11.2941	34.22
11.3043	33.82
11.3145	34.29
11.3246	33.31
11.3348	34.77
11.3449	34.65
11.3551	33.71
11.3653	33.09
11.3754	34.69
11.3856	34.73
11.3958	33.21
11.4059	34.07
11.4161	34.45
11.4263	34.29
11.4364	33.66
11.4466	33.49
11.4568	33.63
11.4669	33.92
11.4771	34.95
11.4873	34.17
11.4974	35.17
11.5076	34.87
11.5177	34.93
11.5279	34.65
11.5381	34.84
11.5482	34.93
11.5584	35.91
11.5686	34.44
11.5787	35.38
11.5889	35.12
11.5991	35.20
11.6092	35.16
11.6194	35.36
11.6296	34.62
11.6397	34.55
11.6499	35.26
11.66	35.42
11.6702	35.77
11.6804	35.28
11.6905	34.88
11.7007	35.41
11.7109	34.68
11.721	35.16
11.7312	35.43
11.7414	35.73
11.7515	35.04
11.7617	35.77
11.7719	35.60
11.782	35.23
11.7922	35.99
11.8023	36.10
11.8125	35.57
11.8227	36.62
11.8328	35.61
11.843	36.15
11.8532	36.91
11.8633	36.37
11.8735	36.35
11.8837	36.12
11.8938	36.46
11.904	36.02
11.9142	36.46
11.9243	37.20
11.9345	36.20
11.9447	36.95
11.9548	36.37
11.965	36.15
11.9751	37.35
11.9853	36.52
11.9955	36.60
12.0056	36.29
12.0158	36.63
12.026	36.68
12.0361	36.45
12.0463	37.34
12.0565	37.21
12.0666	37.00
12.0768	36.54
12.087	36.74
12.0971	36.46
12.1073	37.03
12.1174	37.03
12.1276	37.44
12.1378	36.91
12.1479	36.90
12.1581	36.48
12.1683	37.66
12.1784	37.47
12.1886	37.43
12.1988	36.92
12.2089	37.70
12.2191	38.25
12.2293	38.09
12.2394	36.80
12.2496	38.53
12.2598	37.10
12.2699	37.56
12.2801	39.01
12.2902	38.24
12.3004	37.55
12.3106	39.16
12.3207	37.60
12.3309	38.43
12.3411	38.71
12.3512	37.64
12.3614	38.88
12.3716	37.40
12.3817	37.99
12.3919	38.55
12.4021	39.60
12.4122	38.01
12.4224	38.54
12.4325	39.41
12.4427	38.99
12.4529	38.67
12.463	38.91
12.4732	39.27
12.4834	39.36
12.4935	38.53
12.5037	38.79
12.5139	38.77
12.524	38.30
12.5342	39.31
12.5444	39.29
12.5545	38.00
12.5647	39.43
12.5749	38.68
12.585	40.00
12.5952	38.97
12.6053	39.93
12.6155	39.76
12.6257	39.54
12.6358	39.88
12.646	41.18
12.6562	39.62
12.6663	39.64
12.6765	39.62
12.6867	39.66
12.6968	40.06
12.707	40.32
12.7172	40.52
12.7273	39.49
12.7375	39.86
12.7476	40.07
12.7578	40.15
12.768	40.18
12.7781	40.62
12.7883	40.42
12.7985	40.70
12.8086	40.88
12.8188	41.17
12.829	41.38
12.8391	41.71
12.8493	41.43
12.8595	41.30
12.8696	40.86
12.8798	41.25
12.89	41.62
12.9001	41.57
12.9103	41.62
12.9204	41.94
12.9306	41.71
12.9408	41.59
12.9509	41.32
12.9611	41.73
12.9713	41.76
12.9814	41.41
12.9916	41.56
13.0018	41.89
13.0119	41.76
13.0221	41.65
13.0323	42.37
13.0424	43.07
13.0526	43.16
13.0627	42.59
13.0729	42.65
13.0831	42.37
13.0932	42.87
13.1034	42.53
13.1136	42.90
13.1237	42.33
13.1339	43.46
13.1441	43.05
13.1542	42.70
13.1644	43.76
13.1746	42.62
13.1847	42.51
13.1949	43.29
13.2051	43.46
13.2152	43.15
13.2254	44.37
13.2355	43.82
13.2457	43.99
13.2559	43.68
13.266	43.74
13.2762	43.82
13.2864	43.95
13.2965	42.79
13.3067	44.09
13.3169	43.37
13.327	44.98
13.3372	44.33
13.3474	44.84
13.3575	44.47
13.3677	43.82
13.3778	44.51
13.388	44.34
13.3982	45.09
13.4083	45.10
13.4185	44.67
13.4287	45.55
13.4388	45.06
13.449	44.79
13.4592	45.91
13.4693	44.09
13.4795	45.70
13.4897	45.73
13.4998	45.29
13.51	45.59
13.5201	46.46
13.5303	44.94
13.5405	45.80
13.5506	45.77
13.5608	45.44
13.571	46.56
13.5811	46.32
13.5913	46.47
13.6015	46.90
13.6116	46.52
13.6218	46.11
13.632	46.71
13.6421	46.79
13.6523	46.29
13.6625	47.12
13.6726	47.46
13.6828	47.15
13.6929	47.57
13.7031	47.54
13.7133	46.84
13.7234	46.77
13.7336	47.49
13.7438	48.25
13.7539	47.50
13.7641	47.35
13.7743	48.19
13.7844	47.52
13.7946	47.82
13.8048	48.40
13.8149	47.52
13.8251	48.65
13.8352	48.76
13.8454	47.05
13.8556	48.51
13.8657	49.31
13.8759	49.69
13.8861	47.86
13.8962	48.96
13.9064	49.12
13.9166	48.98
13.9267	49.26
13.9369	48.95
13.9471	49.62
13.9572	49.44
13.9674	49.03
13.9776	49.08
13.9877	48.23
13.9979	49.93
14.008	50.54
14.0182	50.70
14.0284	50.96
14.0385	49.68
14.0487	49.49
14.0589	49.45
14.069	50.82
14.0792	50.24
14.0894	50.60
14.0995	51.47
14.1097	50.81
14.1199	51.70
14.13	50.93
14.1402	50.40
14.1503	51.54
14.1605	52.14
14.1707	50.37
14.1808	50.60
14.191	52.07
14.2012	51.87
14.2113	51.91
14.2215	52.70
14.2317	51.77
14.2418	51.55
14.252	52.55
14.2622	52.31
14.2723	52.83
14.2825	53.42
14.2927	51.79
14.3028	52.22
14.313	53.56
14.3231	52.15
14.3333	53.34
14.3435	54.07
14.3536	54.48
14.3638	52.92
14.374	54.42
14.3841	52.90
14.3943	53.60
14.4045	53.51
14.4146	54.27
14.4248	54.23
14.435	54.82
14.4451	55.10
14.4553	55.16
14.4654	55.71
14.4756	54.73
14.4858	54.33
14.4959	55.08
14.5061	55.12
14.5163	55.04
14.5264	55.70
14.5366	55.12
14.5468	55.58
14.5569	55.90
14.5671	55.74
14.5773	55.29
14.5874	57.69
14.5976	56.05
14.6078	55.65
14.6179	56.81
14.6281	55.64
14.6382	55.82
14.6484	56.60
14.6586	56.52
14.6687	56.75
14.6789	57.58
14.6891	56.60
14.6992	57.30
14.7094	58.46
14.7196	57.09
14.7297	56.94
14.7399	57.72
14.7501	58.05
14.7602	58.80
14.7704	58.45
14.7805	58.35
14.7907	58.65
14.8009	58.69
14.811	58.82
14.8212	58.97
14.8314	57.49
14.8415	58.98
14.8517	58.37
14.8619	58.37
14.872	58.46
14.8822	59.57
14.8924	60.37
14.9025	59.76
14.9127	59.49
14.9229	60.43
14.933	59.58
14.9432	60.77
14.9533	60.49
14.9635	60.82
14.9737	61.58
14.9838	60.27
14.994	61.13
15.0042	60.39
15.0143	60.06
15.0245	60.92
15.0347	61.65
15.0448	61.13
15.055	62.43
15.0652	61.32
15.0753	63.20
15.0855	61.88
15.0956	62.12
15.1058	62.64
15.116	64.55
15.1261	61.21
15.1363	63.32
15.1465	63.16
15.1566	63.35
15.1668	62.93
15.177	63.85
15.1871	63.66
15.1973	64.35
15.2075	63.21
15.2176	64.68
15.2278	63.47
15.238	64.46
15.2481	65.23
15.2583	65.03
15.2684	62.36
15.2786	65.55
15.2888	64.68
15.2989	64.77
15.3091	65.53
15.3193	65.78
15.3294	65.66
15.3396	64.16
15.3498	66.87
15.3599	65.65
15.3701	65.80
15.3803	66.75
15.3904	67.91
15.4006	66.09
15.4107	67.58
15.4209	66.27
15.4311	66.18
15.4412	66.86
15.4514	67.23
15.4616	67.98
15.4717	67.20
15.4819	67.59
15.4921	67.02
15.5022	68.87
15.5124	68.88
15.5226	68.45
15.5327	69.67
15.5429	68.59
15.553	68.65
15.5632	69.51
15.5734	67.63
15.5835	68.59
15.5937	69.68
15.6039	69.13
15.614	70.55
15.6242	70.46
15.6344	70.23
15.6445	70.79
15.6547	71.05
15.6649	71.85
15.675	71.67
15.6852	70.86
15.6954	72.34
15.7055	71.23
15.7157	71.36
15.7258	71.69
15.736	72.26
15.7462	71.54
15.7563	72.33
15.7665	72.30
15.7767	72.48
15.7868	73.50
15.797	72.38
15.8072	72.42
15.8173	71.20
15.8275	73.99
15.8377	73.07
15.8478	73.18
15.858	73.64
15.8681	73.68
15.8783	74.90
15.8885	73.46
15.8986	74.59
15.9088	73.01
15.919	74.55
15.9291	75.20
15.9393	76.98
15.9495	74.58
15.9596	75.21
15.9698	73.74
15.98	74.98
15.9901	74.29
16.0003	74.93
16.0105	75.27
16.0206	76.12
16.0308	76.87
16.0409	77.32
16.0511	77.12
16.0613	75.78
16.0714	75.66
16.0816	76.17
16.0918	77.37
16.1019	76.13
16.1121	78.65
16.1223	77.73
16.1324	78.61
16.1426	78.64
16.1528	78.90
16.1629	78.53
16.1731	79.32
16.1832	78.26
16.1934	79.92
16.2036	79.54
16.2137	78.50
16.2239	79.88
16.2341	79.33
16.2442	80.44
16.2544	79.68
16.2646	80.32
16.2747	79.43
16.2849	80.71
16.2951	80.73
16.3052	81.12
16.3154	82.61
16.3256	82.97
16.3357	81.95
16.3459	80.82
16.356	83.37
16.3662	83.41
16.3764	83.37
16.3865	82.32
16.3967	83.12
16.4069	83.41
16.417	86.04
16.4272	83.80
16.4374	83.35
16.4475	83.55
16.4577	83.94
16.4679	84.63
16.478	84.84
16.4882	83.44
16.4983	85.43
16.5085	86.35
16.5187	86.06
16.5288	86.60
16.539	87.09
16.5492	87.38
16.5593	85.24
16.5695	86.64
16.5797	85.99
16.5898	87.32
16.6	87.52
16.6102	86.99
16.6203	88.66
16.6305	89.09
16.6407	86.75
16.6508	89.04
16.661	88.70
16.6711	89.95
16.6813	89.57
16.6915	90.44
16.7016	89.14
16.7118	89.53
16.722	90.97
16.7321	91.31
16.7423	90.61
16.7525	90.85
16.7626	91.57
16.7728	93.96
16.783	91.85
16.7931	92.40
16.8033	91.68
16.8134	91.74
16.8236	92.17
16.8338	93.46
16.8439	94.62
16.8541	92.22
16.8643	93.71
16.8744	94.82
16.8846	95.96
16.8948	93.36
16.9049	93.46
16.9151	94.92
16.9253	93.77
16.9354	94.52
16.9456	93.70
16.9558	96.22
16.9659	93.87
16.9761	94.14
16.9862	96.45
16.9964	96.16
17.0066	96.45
17.0167	94.98
17.0269	97.44
17.0371	95.87
17.0472	95.77
17.0574	97.81
17.0676	95.79
17.0777	96.07
17.0879	97.71
17.0981	96.66
17.1082	98.39
17.1184	97.07
17.1285	97.92
17.1387	97.24
17.1489	98.08
17.159	97.85
17.1692	97.97
17.1794	98.93
17.1895	98.76
17.1997	99.51
17.2099	98.93
17.22	99.49
17.2302	100.34
17.2404	99.69
17.2505	99.95
17.2607	99.41
17.2709	100.77
17.281	99.71
17.2912	99.45
17.3013	100.65
17.3115	103.52
17.3217	101.67
17.3318	101.37
17.342	101.42
17.3522	103.11
17.3623	102.94
17.3725	101.12
17.3827	103.38
17.3928	103.56
17.403	101.66
17.4132	103.21
17.4233	103.56
17.4335	104.05
17.4436	104.54
17.4538	104.83
17.464	104.51
17.4741	105.77
17.4843	105.26
17.4945	106.37
17.5046	106.53
17.5148	106.90
17.525	106.30
17.5351	106.57
17.5453	106.76
17.5555	107.63
17.5656	108.16
17.5758	108.69
17.5859	108.66
17.5961	107.60
17.6063	109.05
17.6164	108.82
17.6266	108.87
17.6368	110.98
17.6469	110.52
17.6571	110.83
17.6673	112.68
17.6774	110.08
17.6876	111.91
17.6978	112.04
17.7079	112.00
17.7181	112.41
17.7283	114.26
17.7384	113.62
17.7486	115.96
17.7587	114.32
17.7689	114.68
17.7791	115.05
17.7892	115.76
17.7994	115.90
17.8096	116.96
17.8197	116.45
17.8299	116.30
17.8401	118.69
17.8502	118.92
17.8604	119.28
17.8706	119.30
17.8807	122.30
17.8909	121.35
17.901	122.26
17.9112	123.83
17.9214	121.86
17.9315	125.52
17.9417	125.43
17.9519	127.05
17.962	125.30
17.9722	128.70
17.9824	128.23
17.9925	128.60
18.0027	129.99
18.0129	128.51
18.023	130.68
18.0332	133.75
18.0434	134.54
18.0535	132.16
18.0637	138.38
18.0738	138.05
18.084	136.73
18.0942	139.94
18.1043	139.97
18.1145	140.60
18.1247	141.39
18.1348	143.12
18.145	143.57
18.1552	147.01
18.1653	149.33
18.1755	148.59
18.1857	150.01
18.1958	151.96
18.206	152.26
18.2161	155.55
18.2263	159.52
18.2365	159.87
18.2466	161.63
18.2568	163.45
18.267	165.02
18.2771	169.95
18.2873	169.74
18.2975	172.27
18.3076	176.49
18.3178	178.17
18.328	178.71
18.3381	181.76
18.3483	184.19
18.3585	185.96
18.3686	189.02
18.3788	193.52
18.3889	195.41
18.3991	199.38
18.4093	202.79
18.4194	201.00
18.4296	208.17
18.4398	208.77
18.4499	211.36
18.4601	216.99
18.4703	219.63
18.4804	220.00
18.4906	225.34
18.5008	228.86
18.5109	229.23
18.5211	235.32
18.5312	239.60
18.5414	240.02
18.5516	245.07
18.5617	246.04
18.5719	247.41
18.5821	250.32
18.5922	253.58
18.6024	252.22
18.6126	255.40
18.6227	255.60
18.6329	259.06
18.6431	260.17
18.6532	262.35
18.6634	260.38
18.6736	264.59
18.6837	264.05
18.6939	265.33
18.704	263.42
18.7142	263.26
18.7244	262.31
18.7345	264.23
18.7447	262.31
18.7549	260.56
18.765	260.10
18.7752	255.78
18.7854	254.77
18.7955	252.74
18.8057	252.59
18.8159	250.50
18.826	245.05
18.8362	244.87
18.8463	242.99
18.8565	236.96
18.8667	238.40
18.8768	236.30
18.887	230.90
18.8972	227.52
18.9073	222.18
18.9175	222.71
18.9277	222.52
18.9378	213.66
18.948	212.75
18.9582	210.74
18.9683	205.03
18.9785	202.68
18.9887	201.49
18.9988	200.21
19.009	193.48
19.0191	193.60
19.0293	189.98
19.0395	187.49
19.0496	183.88
19.0598	181.85
19.07	178.86
19.0801	178.53
19.0903	175.89
19.1005	174.49
19.1106	170.10
19.1208	167.34
19.131	167.24
19.1411	165.02
19.1513	163.83
19.1614	160.76
19.1716	158.27
19.1818	154.26
19.1919	156.49
19.2021	153.85
19.2123	151.23
19.2224	152.73
19.2326	149.12
19.2428	148.21
19.2529	147.45
19.2631	145.54
19.2733	145.38
19.2834	145.09
19.2936	142.24
19.3038	139.46
19.3139	140.45
19.3241	140.87
19.3342	138.20
19.3444	135.55
19.3546	136.91
19.3647	136.28
19.3749	135.46
19.3851	135.93
19.3952	132.53
19.4054	135.77
19.4156	131.94
19.4257	131.68
19.4359	132.66
19.4461	130.16
19.4562	128.70
19.4664	130.10
19.4765	129.03
19.4867	126.95
19.4969	129.01
19.507	128.11
19.5172	126.24
19.5274	127.80
19.5375	126.30
19.5477	126.05
19.5579	128.18
19.568	125.84
19.5782	125.20
19.5884	125.04
19.5985	125.07
19.6087	124.62
19.6188	124.25
19.629	123.11
19.6392	121.75
19.6493	123.62
19.6595	123.84
19.6697	122.63
19.6798	123.78
19.69	123.57
19.7002	122.70
19.7103	122.62
19.7205	120.87
19.7307	122.79
19.7408	121.35
19.751	121.20
19.7612	121.15
19.7713	121.82
19.7815	122.11
19.7916	121.83
19.8018	120.48
19.812	121.90
19.8221	121.38
19.8323	121.83
19.8425	122.03
19.8526	120.23
19.8628	120.60
19.873	122.33
19.8831	120.13
19.8933	122.29
19.9035	120.10
19.9136	119.10
19.9238	122.48
19.9339	121.30
19.9441	122.37
19.9543	121.45
19.9644	122.35
19.9746	120.93
19.9848	121.38
19.9949	123.24
20.0051	122.49
20.0153	122.13
20.0254	122.98
20.0356	123.73
20.0458	123.51
20.0559	123.84
20.0661	123.23
20.0763	125.08
20.0864	123.84
20.0966	124.31
20.1067	125.95
20.1169	127.44
20.1271	125.60
20.1372	127.70
20.1474	125.31
20.1576	126.93
20.1677	127.48
20.1779	126.52
20.1881	125.91
20.1982	127.25
20.2084	128.56
20.2186	128.29
20.2287	129.52
20.2389	128.39
20.249	128.66
20.2592	129.63
20.2694	131.69
20.2795	129.80
20.2897	132.46
20.2999	131.44
20.31	132.35
20.3202	132.74
20.3304	134.18
20.3405	133.52
20.3507	135.44
20.3609	134.66
20.371	134.56
20.3812	135.05
20.3914	137.85
20.4015	136.38
20.4117	138.81
20.4218	138.01
20.432	136.68
20.4422	138.75
20.4523	138.81
20.4625	138.96
20.4727	137.91
20.4828	138.45
20.493	139.99
20.5032	141.92
20.5133	141.43
20.5235	139.29
20.5337	141.81
20.5438	144.23
20.554	140.87
20.5641	141.98
20.5743	141.05
20.5845	142.90
20.5946	142.93
20.6048	143.37
20.615	143.47
20.6251	142.91
20.6353	145.88
20.6455	141.74
20.6556	143.39
20.6658	142.73
20.676	141.88
20.6861	144.66
20.6963	141.52
20.7065	139.95
20.7166	142.08
20.7268	141.92
20.7369	141.17
20.7471	140.12
20.7573	141.90
20.7674	138.21
20.7776	139.66
20.7878	138.29
20.7979	138.26
20.8081	138.03
20.8183	139.74
20.8284	136.05
20.8386	137.85
20.8488	136.39
20.8589	135.55
20.8691	133.71
20.8792	135.09
20.8894	132.79
20.8996	133.49
20.9097	131.47
20.9199	130.22
20.9301	131.18
20.9402	129.86
20.9504	128.45
20.9606	128.60
20.9707	128.24
20.9809	127.53
20.9911	127.55
21.0012	127.60
21.0114	123.86
21.0216	125.27
21.0317	125.15
21.0419	122.88
21.052	123.05
21.0622	122.55
21.0724	121.80
21.0825	120.53
21.0927	120.51
21.1029	118.27
21.113	118.57
21.1232	119.68
21.1334	117.73
21.1435	117.32
21.1537	119.56
21.1639	116.58
21.174	118.32
21.1842	114.73
21.1943	115.18
21.2045	114.69
21.2147	113.87
21.2248	114.59
21.235	112.92
21.2452	112.21
21.2553	111.26
21.2655	113.30
21.2757	111.03
21.2858	111.13
21.296	111.35
21.3062	112.49
21.3163	110.02
21.3265	111.57
21.3366	111.16
21.3468	110.00
21.357	110.71
21.3671	111.13
21.3773	108.66
21.3875	109.32
21.3976	109.70
21.4078	108.38
21.418	108.01
21.4281	108.74
21.4383	108.36
21.4485	109.12
21.4586	108.87
21.4688	107.73
21.479	109.02
21.4891	108.65
21.4993	108.02
21.5094	107.66
21.5196	109.92
21.5298	107.02
21.5399	108.95
21.5501	107.45
21.5603	108.20
21.5704	108.57
21.5806	108.81
21.5908	107.53
21.6009	109.61
21.6111	109.70
21.6213	108.62
21.6314	111.02
21.6416	109.93
21.6517	109.76
21.6619	111.65
21.6721	111.77
21.6822	112.92
21.6924	110.55
21.7026	111.58
21.7127	111.13
21.7229	112.95
21.7331	112.40
21.7432	112.62
21.7534	115.59
21.7636	114.68
21.7737	114.77
21.7839	113.82
21.7941	116.76
21.8042	114.77
21.8144	116.55
21.8245	119.32
21.8347	118.15
21.8449	119.43
21.855	120.32
21.8652	120.45
21.8754	121.97
21.8855	123.05
21.8957	121.03
21.9059	123.65
21.916	124.95
21.9262	122.93
21.9364	125.87
21.9465	125.91
21.9567	125.62
21.9668	127.79
21.977	128.89
21.9872	129.70
21.9973	129.22
22.0075	131.57
22.0177	132.11
22.0278	131.55
22.038	134.21
22.0482	133.66
22.0583	136.04
22.0685	137.98
22.0787	134.93
22.0888	137.64
22.099	140.15
22.1092	138.26
22.1193	141.15
22.1295	143.61
22.1396	142.77
22.1498	144.09
22.16	145.30
22.1701	146.63
22.1803	147.18
22.1905	149.40
22.2006	148.58
22.2108	150.59
22.221	151.31
22.2311	152.07
22.2413	154.62
22.2515	152.99
22.2616	154.74
22.2718	155.34
22.2819	155.99
22.2921	157.27
22.3023	159.39
22.3124	160.67
22.3226	160.41
22.3328	161.66
22.3429	161.96
22.3531	161.70
22.3633	165.29
22.3734	164.57
22.3836	162.15
22.3938	165.88
22.4039	164.37
22.4141	164.54
22.4243	166.95
22.4344	165.58
22.4446	165.31
22.4547	167.65
22.4649	168.18
22.4751	167.10
22.4852	168.85
22.4954	168.16
22.5056	165.72
22.5157	166.80
22.5259	166.76
22.5361	166.27
22.5462	166.61
22.5564	165.86
22.5666	165.70
22.5767	165.10
22.5869	165.79
22.597	164.77
22.6072	165.73
22.6174	164.21
22.6275	160.04
22.6377	162.68
22.6479	162.16
22.658	157.00
22.6682	159.38
22.6784	160.71
22.6885	158.01
22.6987	157.64
22.7089	158.26
22.719	154.61
22.7292	155.97
22.7394	153.21
22.7495	152.28
22.7597	153.38
22.7698	150.95
22.78	149.43
22.7902	150.22
22.8003	147.21
22.8105	147.10
22.8207	145.58
22.8308	145.50
22.841	144.42
22.8512	143.12
22.8613	143.00
22.8715	139.74
22.8817	140.04
22.8918	138.21
22.902	136.76
22.9121	134.75
22.9223	134.79
22.9325	134.43
22.9426	133.70
22.9528	133.60
22.963	131.48
22.9731	130.63
22.9833	128.86
22.9935	128.37
23.0036	127.48
23.0138	126.45
23.024	124.95
23.0341	124.84
23.0443	123.43
23.0545	120.38
23.0646	118.48
23.0748	120.26
23.0849	118.26
23.0951	118.82
23.1053	117.21
23.1154	116.36
23.1256	115.26
23.1358	114.45
23.1459	111.09
23.1561	113.43
23.1663	112.12
23.1764	110.63
23.1866	109.24
23.1968	110.14
23.2069	108.06
23.2171	107.53
23.2272	105.58
23.2374	106.06
23.2476	105.22
23.2577	105.48
23.2679	103.52
23.2781	103.68
23.2882	101.80
23.2984	101.52
23.3086	101.52
23.3187	100.26
23.3289	99.48
23.3391	97.65
23.3492	97.57
23.3594	97.30
23.3695	96.94
23.3797	95.73
23.3899	95.29
23.4	95.63
23.4102	94.84
23.4204	92.70
23.4305	92.03
23.4407	92.40
23.4509	91.76
23.461	89.73
23.4712	89.80
23.4814	88.84
23.4915	88.07
23.5017	87.64
23.5119	88.37
23.522	86.87
23.5322	87.07
23.5423	85.73
23.5525	84.83
23.5627	86.21
23.5728	83.85
23.583	83.65
23.5932	83.86
23.6033	81.84
23.6135	83.49
23.6237	82.34
23.6338	81.30
23.644	81.58
23.6542	80.73
23.6643	79.93
23.6745	80.52
23.6846	79.64
23.6948	77.52
23.705	78.87
23.7151	78.72
23.7253	77.88
23.7355	77.35
23.7456	76.46
23.7558	76.88
23.766	75.28
23.7761	76.46
23.7863	74.95
23.7965	75.65
23.8066	74.12
23.8168	74.74
23.827	74.65
23.8371	72.68
23.8473	73.66
23.8574	74.59
23.8676	73.09
23.8778	72.48
23.8879	71.75
23.8981	71.52
23.9083	73.04
23.9184	70.55
23.9286	71.27
23.9388	71.84
23.9489	70.58
23.9591	71.04
23.9693	69.40
23.9794	70.84
23.9896	70.18
23.9997	69.37
24.0099	68.68
24.0201	68.11
24.0302	68.95
24.0404	67.29
24.0506	67.87
24.0607	67.23
24.0709	68.45
24.0811	67.96
24.0912	66.30
24.1014	67.23
24.1116	67.16
24.1217	65.06
24.1319	66.78
24.1421	65.67
24.1522	64.66
24.1624	64.82
24.1725	66.37
24.1827	64.34
24.1929	65.01
24.203	65.30
24.2132	64.82
24.2234	64.62
24.2335	64.38
24.2437	63.76
24.2539	65.41
24.264	63.99
24.2742	64.39
24.2844	63.10
24.2945	62.99
24.3047	62.66
24.3148	63.30
24.325	63.27
24.3352	62.35
24.3453	63.52
24.3555	62.17
24.3657	62.71
24.3758	61.70
24.386	62.61
24.3962	62.45
24.4063	61.95
24.4165	60.41
24.4267	60.82
24.4368	61.91
24.447	60.82
24.4572	60.52
24.4673	61.72
24.4775	60.99
24.4876	62.17
24.4978	61.18
24.508	60.79
24.5181	60.87
24.5283	59.51
24.5385	59.23
24.5486	59.77
24.5588	60.26
24.569	59.41
24.5791	60.78
24.5893	59.10
24.5995	58.72
24.6096	58.80
24.6198	58.73
24.6299	59.30
24.6401	59.15
24.6503	58.74
24.6604	58.07
24.6706	58.56
24.6808	58.26
24.6909	57.76
24.7011	57.84
24.7113	58.00
24.7214	58.72
24.7316	58.77
24.7418	58.07
24.7519	57.15
24.7621	58.06
24.7723	58.59
24.7824	58.39
24.7926	58.71
24.8027	56.71
24.8129	57.52
24.8231	56.81
24.8332	57.24
24.8434	58.26
24.8536	56.95
24.8637	56.91
24.8739	56.48
24.8841	55.85
24.8942	57.05
24.9044	56.40
24.9146	56.07
24.9247	56.97
24.9349	56.67
24.945	56.23
24.9552	55.54
24.9654	55.41
24.9755	56.21
24.9857	55.31
24.9959	55.90
25.006	56.26
25.0162	55.70
25.0264	56.30
25.0365	56.90
25.0467	55.42
25.0569	55.59
25.067	56.15
25.0772	54.82
25.0874	54.63
25.0975	56.06
25.1077	56.18
25.1178	55.29
25.128	55.08
25.1382	55.68
25.1483	55.08
25.1585	55.95
25.1687	54.90
25.1788	54.46
25.189	54.67
25.1992	54.12
25.2093	54.20
25.2195	54.96
25.2297	54.35
25.2398	54.27
25.25	53.99
25.2601	54.64
25.2703	55.20
25.2805	54.24
25.2906	53.97
25.3008	54.55
25.311	53.65
25.3211	53.48
25.3313	54.29
25.3415	54.34
25.3516	54.26
25.3618	54.45
25.372	55.15
25.3821	53.03
25.3923	55.10
25.4024	52.35
25.4126	53.65
25.4228	53.59
25.4329	54.16
25.4431	53.32
25.4533	53.88
25.4634	53.01
25.4736	54.15
25.4838	53.34
25.4939	52.79
25.5041	53.41
25.5143	54.99
25.5244	53.34
25.5346	53.74
25.5448	53.50
25.5549	52.04
25.5651	53.77
25.5752	52.99
25.5854	53.48
25.5956	52.95
25.6057	53.26
25.6159	53.15
25.6261	52.51
25.6362	53.05
25.6464	52.91
25.6566	52.18
25.6667	53.98
25.6769	52.73
25.6871	52.27
25.6972	52.49
25.7074	52.62
25.7175	52.38
25.7277	52.11
25.7379	53.60
25.748	52.71
25.7582	52.07
25.7684	52.85
25.7785	51.74
25.7887	51.18
25.7989	52.31
25.809	52.40
25.8192	51.95
25.8294	52.60
25.8395	51.57
25.8497	51.82
25.8599	50.83
25.87	51.16
25.8802	50.69
25.8903	50.66
25.9005	50.86
25.9107	51.37
25.9208	51.28
25.931	51.26
25.9412	50.91
25.9513	51.48
25.9615	50.77
25.9717	50.14
25.9818	50.80
25.992	50.77
26.0022	50.66
26.0123	50.58
26.0225	51.15
26.0326	51.13
26.0428	50.49
26.053	50.65
26.0631	50.16
26.0733	49.82
26.0835	51.51
26.0936	50.49
26.1038	50.35
26.114	49.34
26.1241	49.87
26.1343	49.24
26.1445	50.98
26.1546	50.18
26.1648	50.32
26.175	49.96
26.1851	50.23
26.1953	50.13
26.2054	48.80
26.2156	49.57
26.2258	49.10
26.2359	50.02
26.2461	50.21
26.2563	49.86
26.2664	48.84
26.2766	49.45
26.2868	48.26
26.2969	49.70
26.3071	48.92
26.3173	48.30
26.3274	48.37
26.3376	47.93
26.3477	48.48
26.3579	49.51
26.3681	49.28
26.3782	48.38
26.3884	47.94
26.3986	48.13
26.4087	48.41
26.4189	48.09
26.4291	48.12
26.4392	47.55
26.4494	48.58
26.4596	47.32
26.4697	47.56
26.4799	48.55
26.4901	48.07
26.5002	48.02
26.5104	48.34
26.5205	48.43
26.5307	48.34
26.5409	48.38
26.551	48.00
26.5612	47.95
26.5714	46.76
26.5815	47.29
26.5917	46.85
26.6019	48.42
26.612	47.44
26.6222	47.10
26.6324	47.32
26.6425	46.09
26.6527	46.82
26.6628	48.28
26.673	48.12
26.6832	46.87
26.6933	47.41
26.7035	47.82
26.7137	46.45
26.7238	47.66
26.734	47.90
26.7442	47.69
26.7543	46.95
26.7645	47.58
26.7747	47.23
26.7848	45.34
26.795	47.71
26.8052	46.88
26.8153	46.82
26.8255	47.35
26.8356	46.78
26.8458	46.48
26.856	46.21
26.8661	47.29
26.8763	47.01
26.8865	46.92
26.8966	46.16
26.9068	46.14
26.917	47.38
26.9271	47.98
26.9373	45.96
26.9475	46.36
26.9576	46.84
26.9678	45.71
26.9779	46.91
26.9881	45.60
26.9983	47.70
27.0084	46.94
27.0186	45.96
27.0288	47.02
27.0389	47.44
27.0491	46.59
27.0593	45.90
27.0694	46.73
27.0796	45.23
27.0898	46.95
27.0999	45.94
27.1101	46.61
27.1202	46.77
27.1304	45.41
27.1406	45.81
27.1507	46.91
27.1609	46.48
27.1711	46.74
27.1812	46.19
27.1914	46.32
27.2016	46.04
27.2117	46.32
27.2219	45.69
27.2321	45.42
27.2422	46.85
27.2524	47.41
27.2626	45.97
27.2727	45.38
27.2829	47.15
27.293	45.79
27.3032	46.45
27.3134	45.60
27.3235	45.98
27.3337	45.01
27.3439	46.26
27.354	46.43
27.3642	45.78
27.3744	46.84
27.3845	46.84
27.3947	45.86
27.4049	47.04
27.415	47.27
27.4252	46.61
27.4353	46.74
27.4455	46.59
27.4557	46.12
27.4658	46.66
27.476	46.48
27.4862	47.62
27.4963	46.65
27.5065	46.01
27.5167	46.68
27.5268	47.27
27.537	46.45
27.5472	47.42
27.5573	48.22
27.5675	47.23
27.5777	48.11
27.5878	48.36
27.598	47.75
27.6081	48.19
27.6183	47.09
27.6285	48.29
27.6386	48.30
27.6488	47.90
27.659	47.59
27.6691	48.41
27.6793	49.10
27.6895	47.63
27.6996	47.56
27.7098	48.68
27.72	48.12
27.7301	48.12
27.7403	48.72
27.7504	48.98
27.7606	49.33
27.7708	50.04
27.7809	49.37
27.7911	50.47
27.8013	49.99
27.8114	50.43
27.8216	50.08
27.8318	50.23
27.8419	51.70
27.8521	51.24
27.8623	51.05
27.8724	51.09
27.8826	50.84
27.8928	52.32
27.9029	51.00
27.9131	51.51
27.9232	52.14
27.9334	53.40
27.9436	53.63
27.9537	53.63
27.9639	54.16
27.9741	53.49
27.9842	53.95
27.9944	54.35
28.0046	55.40
28.0147	55.48
28.0249	56.76
28.0351	56.01
28.0452	55.48
28.0554	57.51
28.0655	55.85
28.0757	56.85
28.0859	57.90
28.096	58.77
28.1062	57.71
28.1164	59.45
28.1265	59.40
28.1367	58.49
28.1469	59.99
28.157	59.57
28.1672	60.30
28.1774	61.87
28.1875	61.65
28.1977	62.30
28.2079	63.04
28.218	63.65
28.2282	64.70
28.2383	64.35
28.2485	64.21
28.2587	65.01
28.2688	66.69
28.279	66.66
28.2892	67.30
28.2993	67.63
28.3095	68.41
28.3197	68.25
28.3298	69.24
28.34	69.22
28.3502	68.74
28.3603	69.07
28.3705	69.28
28.3806	69.17
28.3908	70.46
28.401	68.58
28.4111	71.19
28.4213	70.95
28.4315	70.23
28.4416	70.46
28.4518	69.54
28.462	69.13
28.4721	70.78
28.4823	72.77
28.4925	71.23
28.5026	72.34
28.5128	71.40
28.523	71.57
28.5331	71.80
28.5433	72.23
28.5534	71.85
28.5636	71.62
28.5738	70.85
28.5839	71.47
28.5941	73.74
28.6043	71.48
28.6144	71.72
28.6246	72.69
28.6348	72.33
28.6449	72.27
28.6551	71.43
28.6653	72.02
28.6754	70.42
28.6856	71.78
28.6957	71.00
28.7059	69.26
28.7161	69.90
28.7262	69.79
28.7364	68.86
28.7466	69.39
28.7567	68.90
28.7669	68.79
28.7771	67.77
28.7872	68.60
28.7974	67.52
28.8076	67.45
28.8177	67.54
28.8279	66.46
28.8381	67.09
28.8482	66.28
28.8584	65.46
28.8685	65.54
28.8787	66.63
28.8889	65.35
28.899	62.98
28.9092	65.45
28.9194	64.18
28.9295	62.84
28.9397	62.52
28.9499	62.95
28.96	61.71
28.9702	61.98
28.9804	60.60
28.9905	61.20
29.0007	60.39
29.0108	59.84
29.021	59.32
29.0312	59.45
29.0413	58.26
29.0515	59.04
29.0617	58.94
29.0718	58.22
29.082	58.02
29.0922	57.73
29.1023	56.93
29.1125	56.65
29.1227	56.92
29.1328	55.32
29.143	55.79
29.1531	55.16
29.1633	54.01
29.1735	54.43
29.1836	54.29
29.1938	53.95
29.204	53.52
29.2141	53.47
29.2243	53.30
29.2345	53.44
29.2446	52.63
29.2548	52.42
29.265	52.29
29.2751	51.60
29.2853	51.00
29.2955	50.68
29.3056	50.93
29.3158	50.25
29.3259	50.77
29.3361	49.91
29.3463	50.57
29.3564	49.45
29.3666	50.66
29.3768	49.98
29.3869	48.86
29.3971	49.18
29.4073	48.21
29.4174	48.30
29.4276	49.65
29.4378	49.38
29.4479	46.93
29.4581	48.00
29.4682	46.86
29.4784	47.00
29.4886	47.37
29.4987	46.68
29.5089	46.73
29.5191	46.91
29.5292	47.18
29.5394	46.62
29.5496	44.97
29.5597	45.26
29.5699	46.05
29.5801	45.70
29.5902	45.85
29.6004	45.32
29.6106	44.73
29.6207	45.08
29.6309	45.54
29.641	44.76
29.6512	44.14
29.6614	43.87
29.6715	44.32
29.6817	44.27
29.6919	44.27
29.702	44.31
29.7122	43.51
29.7224	44.10
29.7325	43.60
29.7427	44.07
29.7529	44.03
29.763	43.97
29.7732	43.33
29.7833	43.45
29.7935	43.97
29.8037	42.60
29.8138	42.13
29.824	43.85
29.8342	41.91
29.8443	42.73
29.8545	43.34
29.8647	43.45
29.8748	42.47
29.885	42.51
29.8952	42.59
29.9053	42.58
29.9155	42.71
29.9257	42.11
29.9358	42.50
29.946	42.59
29.9561	43.04
29.9663	42.17
29.9765	41.84
29.9866	40.88
29.9968	42.00
30.007	41.33
30.0171	40.57
30.0273	42.13
30.0375	41.68
30.0476	42.10
30.0578	40.70
30.068	41.77
30.0781	41.35
30.0883	42.54
30.0984	41.87
30.1086	40.74
30.1188	40.90
30.1289	41.79
30.1391	40.67
30.1493	41.13
30.1594	40.64
30.1696	40.71
30.1798	41.08
30.1899	41.71
30.2001	40.30
30.2103	40.38
30.2204	40.13
30.2306	39.93
30.2408	41.11
30.2509	40.91
30.2611	40.04
30.2712	39.60
30.2814	40.19
30.2916	38.91
30.3017	39.46
30.3119	39.13
30.3221	39.50
30.3322	39.16
30.3424	39.88
30.3526	38.43
30.3627	39.37
30.3729	39.04
30.3831	38.14
30.3932	39.43
30.4034	38.48
30.4135	37.65
30.4237	38.99
30.4339	37.69
30.444	39.08
30.4542	37.18
30.4644	37.20
30.4745	37.34
30.4847	38.22
30.4949	36.95
30.505	36.88
30.5152	36.93
30.5254	36.19
30.5355	36.71
30.5457	36.95
30.5559	37.79
30.566	36.73
30.5762	36.77
30.5863	36.88
30.5965	36.05
30.6067	37.37
30.6168	36.51
30.627	35.70
30.6372	36.03
30.6473	36.51
30.6575	35.97
30.6677	35.84
30.6778	35.84
30.688	34.86
30.6982	35.77
30.7083	35.46
30.7185	35.54
30.7286	35.27
30.7388	35.32
30.749	35.30
30.7591	35.59
30.7693	35.57
30.7795	34.66
30.7896	35.62
30.7998	34.92
30.81	35.09
30.8201	34.50
30.8303	35.81
30.8405	34.54
30.8506	34.77
30.8608	35.32
30.871	33.84
30.8811	34.49
30.8913	34.84
30.9014	34.02
30.9116	35.59
30.9218	33.52
30.9319	34.86
30.9421	34.08
30.9523	34.85
30.9624	33.95
30.9726	33.98
30.9828	34.60
30.9929	33.83
31.0031	34.52
31.0133	34.49
31.0234	33.30
31.0336	33.45
31.0437	34.28
31.0539	33.54
31.0641	33.21
31.0742	33.66
31.0844	33.29
31.0946	33.29
31.1047	33.52
31.1149	32.93
31.1251	33.07
31.1352	34.09
31.1454	32.70
31.1556	33.32
31.1657	33.17
31.1759	32.10
31.186	33.84
31.1962	33.70
31.2064	33.28
31.2165	33.07
31.2267	33.35
31.2369	32.67
31.247	32.64
31.2572	33.48
31.2674	33.23
31.2775	32.63
31.2877	34.29
31.2979	32.36
31.308	33.41
31.3182	33.23
31.3284	32.46
31.3385	31.85
31.3487	32.40
31.3588	33.23
31.369	32.52
31.3792	32.52
31.3893	33.02
31.3995	32.97
31.4097	32.18
31.4198	32.40
31.43	32.86
31.4402	32.98
31.4503	31.81
31.4605	31.26
31.4707	32.74
31.4808	32.30
31.491	31.43
31.5011	32.91
31.5113	32.37
31.5215	32.32
31.5316	32.66
31.5418	32.65
31.552	31.47
31.5621	31.93
31.5723	31.71
31.5825	31.36
31.5926	31.30
31.6028	32.06
31.613	31.81
31.6231	31.81
31.6333	31.78
31.6435	32.66
31.6536	32.23
31.6638	31.82
31.6739	31.24
31.6841	32.52
31.6943	31.66
31.7044	31.78
31.7146	32.36
31.7248	31.46
31.7349	31.60
31.7451	31.98
31.7553	31.84
31.7654	31.41
31.7756	32.45
31.7858	32.19
31.7959	32.10
31.8061	31.81
31.8162	32.55
31.8264	31.95
31.8366	32.45
31.8467	31.09
31.8569	31.58
31.8671	31.37
31.8772	31.51
31.8874	31.92
31.8976	32.56
31.9077	32.40
31.9179	32.18
31.9281	31.67
31.9382	31.28
31.9484	31.84
31.9586	31.27
31.9687	31.43
31.9789	31.52
31.989	32.58
31.9992	31.25
32.0094	31.24
32.0195	31.73
32.0297	31.74
32.0399	31.45
32.05	31.62
32.0602	31.27
32.0704	32.55
32.0805	32.57
32.0907	32.18
32.1009	31.39
32.111	32.16
32.1212	31.71
32.1313	31.54
32.1415	32.08
32.1517	32.05
32.1618	32.82
32.172	32.12
32.1822	31.87
32.1923	32.19
32.2025	31.79
32.2127	32.29
32.2228	32.99
32.233	32.40
32.2432	33.26
32.2533	33.03
32.2635	32.78
32.2737	31.66
32.2838	32.65
32.294	32.80
32.3041	31.81
32.3143	32.68
32.3245	33.26
32.3346	32.38
32.3448	32.52
32.355	32.57
32.3651	31.82
32.3753	31.84
32.3855	32.93
32.3956	32.59
32.4058	31.50
32.416	31.76
32.4261	32.28
32.4363	32.85
32.4464	32.76
32.4566	32.45
32.4668	33.37
32.4769	32.80
32.4871	33.27
32.4973	32.30
32.5074	32.82
32.5176	32.67
32.5278	32.48
32.5379	32.64
32.5481	31.75
32.5583	32.32
32.5684	32.19
32.5786	32.49
32.5888	32.15
32.5989	32.43
32.6091	32.96
32.6192	32.59
32.6294	31.87
32.6396	31.90
32.6497	32.83
32.6599	31.99
32.6701	31.94
32.6802	32.70
32.6904	32.68
32.7006	32.15
32.7107	32.32
32.7209	31.87
32.7311	32.12
32.7412	32.26
32.7514	32.31
32.7615	32.23
32.7717	33.05
32.7819	32.84
32.792	31.80
32.8022	32.25
32.8124	32.71
32.8225	31.84
32.8327	32.01
32.8429	32.77
32.853	31.44
32.8632	32.07
32.8734	32.57
32.8835	31.89
32.8937	32.85
32.9039	32.26
32.914	32.59
32.9242	32.73
32.9343	32.73
32.9445	32.57
32.9547	31.74
32.9648	32.61
32.975	31.61
32.9852	32.05
32.9953	32.59
33.0055	31.29
33.0157	32.23
33.0258	32.73
33.036	32.17
33.0462	32.00
33.0563	31.83
33.0665	31.98
33.0766	32.63
33.0868	31.80
33.097	32.66
33.1071	31.73
33.1173	32.20
33.1275	31.97
33.1376	32.19
33.1478	32.61
33.158	31.88
33.1681	33.60
33.1783	32.51
33.1885	32.19
33.1986	31.90
33.2088	32.74
33.2189	31.70
33.2291	31.55
33.2393	32.48
33.2494	31.46
33.2596	31.92
33.2698	32.20
33.2799	32.04
33.2901	32.74
33.3003	31.78
33.3104	32.38
33.3206	32.61
33.3308	32.03
33.3409	32.61
33.3511	31.97
33.3613	32.51
33.3714	32.12
33.3816	32.63
33.3917	32.07
33.4019	32.01
33.4121	32.01
33.4222	32.04
33.4324	31.79
33.4426	32.37
33.4527	33.03
33.4629	32.52
33.4731	32.78
33.4832	32.29
33.4934	32.18
33.5036	31.45
33.5137	32.20
33.5239	31.58
33.534	31.94
33.5442	32.44
33.5544	31.37
33.5645	31.51
33.5747	31.64
33.5849	31.32
33.595	31.81
33.6052	32.05
33.6154	30.85
33.6255	31.46
33.6357	30.87
33.6459	31.59
33.656	30.59
33.6662	30.36
33.6764	31.30
33.6865	30.37
33.6967	30.01
33.7068	30.32
33.717	30.65
33.7272	30.00
33.7373	29.88
33.7475	29.46
33.7577	29.87
33.7678	29.76
33.778	30.26
33.7882	29.98
33.7983	28.84
33.8085	30.65
33.8187	29.44
33.8288	29.49
33.839	29.46
33.8491	29.43
33.8593	29.15
33.8695	29.82
33.8796	29.20
33.8898	29.19
33.9	28.62
33.9101	28.57
33.9203	28.62
33.9305	28.70
33.9406	28.66
33.9508	28.85
33.961	28.57
33.9711	28.49
33.9813	27.75
33.9915	28.64
34.0016	28.16
34.0118	28.05
34.0219	28.19
34.0321	28.01
34.0423	27.88
34.0524	27.82
34.0626	28.07
34.0728	27.35
34.0829	28.02
34.0931	27.71
34.1033	27.59
34.1134	28.07
34.1236	27.36
34.1338	26.87
34.1439	27.20
34.1541	26.71
34.1642	26.64
34.1744	26.85
34.1846	27.36
34.1947	27.07
34.2049	26.55
34.2151	27.18
34.2252	26.46
34.2354	26.52
34.2456	26.56
34.2557	26.90
34.2659	26.55
34.2761	27.05
34.2862	26.76
34.2964	26.81
34.3066	26.23
34.3167	26.04
34.3269	25.79
34.337	26.54
34.3472	26.48
34.3574	26.64
34.3675	25.42
34.3777	26.60
34.3879	25.95
34.398	25.92
34.4082	26.33
34.4184	26.48
34.4285	25.53
34.4387	25.93
34.4489	25.27
34.459	26.19
34.4692	26.32
34.4793	25.49
34.4895	26.13
34.4997	26.03
34.5098	26.30
34.52	25.51
34.5302	24.88
34.5403	26.45
34.5505	26.02
34.5607	25.96
34.5708	25.83
34.581	24.98
34.5912	26.13
34.6013	25.75
34.6115	26.60
34.6217	25.70
34.6318	25.09
34.642	25.93
34.6521	26.01
34.6623	25.54
34.6725	26.15
34.6826	25.32
34.6928	26.04
34.703	25.47
34.7131	25.41
34.7233	25.70
34.7335	25.57
34.7436	25.57
34.7538	25.16
34.764	25.80
34.7741	25.15
34.7843	25.16
34.7944	25.46
34.8046	24.94
34.8148	25.47
34.8249	25.49
34.8351	25.01
34.8453	25.25
34.8554	25.32
34.8656	25.23
34.8758	24.94
34.8859	25.87
34.8961	24.51
34.9063	23.99
34.9164	23.98
34.9266	25.64
34.9367	24.68
34.9469	25.31
34.9571	25.37
34.9672	24.79
34.9774	25.68
34.9876	25.84
34.9977	25.16
35.0079	24.55
35.0181	24.98
35.0282	24.54
35.0384	24.26
35.0486	24.91
35.0587	24.17
35.0689	24.45
35.0791	24.65
35.0892	24.40
35.0994	24.63
35.1095	24.23
35.1197	24.82
35.1299	25.70
35.14	24.96
35.1502	25.13
35.1604	24.65
35.1705	25.01
35.1807	24.49
35.1909	24.82
35.201	24.51
35.2112	25.07
35.2214	24.85
35.2315	24.29
35.2417	24.75
35.2518	24.25
35.262	24.87
35.2722	23.82
35.2823	24.21
35.2925	24.30
35.3027	24.61
35.3128	24.39
35.323	23.87
35.3332	24.51
35.3433	24.82
35.3535	24.79
35.3637	24.24
35.3738	24.12
35.384	24.67
35.3942	24.45
35.4043	24.80
35.4145	25.23
35.4246	23.82
35.4348	24.02
35.445	23.91
35.4551	24.71
35.4653	24.63
35.4755	24.55
35.4856	24.56
35.4958	24.15
35.506	24.26
35.5161	25.03
35.5263	25.04
35.5365	24.47
35.5466	24.52
35.5568	24.50
35.5669	24.49
35.5771	24.35
35.5873	24.40
35.5974	24.44
35.6076	24.35
35.6178	24.88
35.6279	23.67
35.6381	24.73
35.6483	24.16
35.6584	24.12
35.6686	23.99
35.6788	24.43
35.6889	23.94
35.6991	24.54
35.7093	24.22
35.7194	24.09
35.7296	24.22
35.7397	23.95
35.7499	24.29
35.7601	23.82
35.7702	23.52
35.7804	24.51
35.7906	24.28
35.8007	24.11
35.8109	24.41
35.8211	23.30
35.8312	23.55
35.8414	24.20
35.8516	23.38
35.8617	23.69
35.8719	23.64
35.882	23.93
35.8922	24.52
35.9024	24.39
35.9125	23.09
35.9227	23.82
35.9329	24.04
35.943	23.55
35.9532	23.74
35.9634	23.57
35.9735	24.55
35.9837	23.84
35.9939	23.62
36.004	23.40
36.0142	24.02
36.0244	24.03
36.0345	23.80
36.0447	24.27
36.0548	24.20
36.065	24.02
36.0752	23.46
36.0853	23.88
36.0955	24.16
36.1057	23.80
36.1158	24.56
36.126	23.99
36.1362	23.77
36.1463	24.55
36.1565	24.42
36.1667	23.76
36.1768	23.34
36.187	23.91
36.1971	23.47
36.2073	24.33
36.2175	24.04
36.2276	23.80
36.2378	23.86
36.248	23.94
36.2581	23.37
36.2683	24.16
36.2785	23.52
36.2886	23.79
36.2988	23.26
36.309	23.39
36.3191	23.53
36.3293	24.29
36.3395	23.60
36.3496	23.77
36.3598	23.78
36.3699	23.74
36.3801	23.81
36.3903	23.23
36.4004	23.73
36.4106	24.26
36.4208	23.63
36.4309	24.10
36.4411	23.98
36.4513	24.22
36.4614	23.05
36.4716	24.70
36.4818	23.72
36.4919	24.48
36.5021	23.47
36.5122	23.87
36.5224	23.94
36.5326	24.21
36.5427	24.41
36.5529	23.71
36.5631	23.55
36.5732	24.00
36.5834	23.83
36.5936	23.46
36.6037	24.62
36.6139	23.66
36.6241	24.35
36.6342	23.56
36.6444	24.49
36.6546	23.91
36.6647	24.09
36.6749	24.47
36.685	24.27
36.6952	24.53
36.7054	24.18
36.7155	23.34
36.7257	24.30
36.7359	24.32
36.746	24.25
36.7562	24.65
36.7664	24.54
36.7765	24.37
36.7867	24.74
36.7969	23.84
36.807	24.04
36.8172	25.08
36.8273	23.54
36.8375	23.79
36.8477	24.43
36.8578	24.14
36.868	24.49
36.8782	24.46
36.8883	24.22
36.8985	24.90
36.9087	24.62
36.9188	24.30
36.929	23.91
36.9392	24.14
36.9493	24.38
36.9595	24.43
36.9696	24.53
36.9798	24.26
36.99	24.35
37.0001	24.56
37.0103	25.16
37.0205	24.27
37.0306	24.79
37.0408	24.45
37.051	24.81
37.0611	25.34
37.0713	24.49
37.0815	24.62
37.0916	24.90
37.1018	24.84
37.112	24.80
37.1221	24.47
37.1323	25.27
37.1424	24.66
37.1526	25.06
37.1628	25.05
37.1729	24.76
37.1831	24.91
37.1933	26.05
37.2034	24.89
37.2136	25.31
37.2238	25.59
37.2339	25.34
37.2441	24.41
37.2543	25.09
37.2644	25.26
37.2746	24.90
37.2847	26.16
37.2949	25.26
37.3051	26.23
37.3152	24.75
37.3254	25.78
37.3356	25.37
37.3457	25.21
37.3559	25.60
37.3661	25.57
37.3762	25.95
37.3864	25.88
37.3966	25.76
37.4067	26.13
37.4169	25.39
37.4271	25.99
37.4372	25.62
37.4474	26.05
37.4575	25.45
37.4677	25.41
37.4779	26.58
37.488	25.27
37.4982	26.01
37.5084	26.09
37.5185	26.32
37.5287	26.20
37.5389	25.26
37.549	25.88
37.5592	25.84
37.5694	26.09
37.5795	26.49
37.5897	26.02
37.5998	25.40
37.61	26.84
37.6202	26.10
37.6303	26.57
37.6405	26.60
37.6507	26.51
37.6608	26.88
37.671	27.38
37.6812	26.38
37.6913	26.27
37.7015	26.99
37.7117	27.34
37.7218	26.05
37.732	26.52
37.7422	26.46
37.7523	26.77
37.7625	27.30
37.7726	26.38
37.7828	26.55
37.793	26.36
37.8031	26.88
37.8133	26.97
37.8235	26.90
37.8336	27.70
37.8438	27.47
37.854	27.20
37.8641	27.79
37.8743	27.20
37.8845	27.17
37.8946	26.60
37.9048	28.08
37.9149	27.55
37.9251	27.62
37.9353	28.36
37.9454	27.90
37.9556	28.24
37.9658	28.43
37.9759	28.35
37.9861	28.26
37.9963	28.79
38.0064	27.77
38.0166	28.55
38.0268	28.04
38.0369	28.46
38.0471	28.15
38.0573	27.87
38.0674	28.24
38.0776	28.24
38.0877	28.94
38.0979	27.68
38.1081	28.75
38.1182	28.91
38.1284	29.69
38.1386	29.12
38.1487	29.43
38.1589	28.62
38.1691	29.38
38.1792	29.12
38.1894	29.76
38.1996	28.90
38.2097	29.33
38.2199	29.60
38.23	29.14
38.2402	29.88
38.2504	28.66
38.2605	29.27
38.2707	28.99
38.2809	29.27
38.291	29.52
38.3012	29.30
38.3114	29.55
38.3215	30.05
38.3317	30.85
38.3419	29.29
38.352	30.27
38.3622	29.91
38.3724	31.11
38.3825	29.50
38.3927	30.08
38.4028	29.74
38.413	30.48
38.4232	30.95
38.4333	30.71
38.4435	30.30
38.4537	29.98
38.4638	30.84
38.474	31.01
38.4842	30.07
38.4943	30.93
38.5045	30.03
38.5147	30.70
38.5248	30.37
38.535	30.12
38.5451	30.60
38.5553	30.28
38.5655	30.60
38.5756	30.47
38.5858	30.79
38.596	30.84
38.6061	30.47
38.6163	30.98
38.6265	30.71
38.6366	30.40
38.6468	31.15
38.657	31.26
38.6671	30.22
38.6773	30.97
38.6875	29.69
38.6976	30.52
38.7078	30.76
38.7179	30.54
38.7281	31.41
38.7383	31.08
38.7484	30.49
38.7586	30.47
38.7688	30.43
38.7789	31.02
38.7891	30.66
38.7993	30.01
38.8094	30.39
38.8196	31.34
38.8298	29.54
38.8399	30.43
38.8501	29.62
38.8602	29.71
38.8704	30.35
38.8806	30.82
38.8907	30.12
38.9009	31.05
38.9111	29.49
38.9212	30.57
38.9314	29.96
38.9416	30.66
38.9517	29.99
38.9619	29.17
38.9721	29.42
38.9822	29.46
38.9924	29.77
39.0025	30.01
39.0127	29.86
39.0229	29.80
39.033	29.94
39.0432	29.77
39.0534	29.80
39.0635	29.88
39.0737	29.58
39.0839	28.90
39.094	29.45
39.1042	28.96
39.1144	29.19
39.1245	29.39
39.1347	29.15
39.1449	29.21
39.155	28.98
39.1652	28.90
39.1753	28.41
39.1855	29.00
39.1957	27.90
39.2058	28.77
39.216	28.21
39.2262	28.87
39.2363	28.93
39.2465	27.65
39.2567	28.24
39.2668	28.44
39.277	28.76
39.2872	28.09
39.2973	27.59
39.3075	28.05
39.3176	27.68
39.3278	28.56
39.338	27.90
39.3481	28.62
39.3583	27.77
39.3685	28.47
39.3786	27.68
39.3888	27.65
39.399	27.68
39.4091	27.37
39.4193	26.99
39.4295	27.29
39.4396	27.62
39.4498	27.20
39.46	27.46
39.4701	27.38
39.4803	27.85
39.4904	26.85
39.5006	26.82
39.5108	26.99
39.5209	27.02
39.5311	26.57
39.5413	26.77
39.5514	26.69
39.5616	26.73
39.5718	26.91
39.5819	26.73
39.5921	26.98
39.6023	26.16
39.6124	26.32
39.6226	26.73
39.6327	26.35
39.6429	26.41
39.6531	26.51
39.6632	26.29
39.6734	26.44
39.6836	26.32
39.6937	26.45
39.7039	25.30
39.7141	26.12
39.7242	26.24
39.7344	26.07
39.7446	26.29
39.7547	26.77
39.7649	26.13
39.7751	26.73
39.7852	25.22
39.7954	25.99
39.8055	26.10
39.8157	25.79
39.8259	25.32
39.836	25.90
39.8462	25.59
39.8564	25.61
39.8665	25.84
39.8767	25.75
39.8869	25.50
39.897	25.23
39.9072	25.54
39.9174	25.02
39.9275	25.86
39.9377	25.01
39.9478	24.85
39.958	25.04
39.9682	24.97
39.9783	25.53
39.9885	25.30
39.9987	25.59
