5.0023	58.23
5.0125	57.55
5.0226	56.32
5.0328	55.83
5.043	54.94
5.0531	54.52
5.0633	52.80
5.0735	52.72
5.0836	51.69
5.0938	51.29
5.1039	50.58
5.1141	49.02
5.1243	48.07
5.1344	47.77
5.1446	47.03
5.1548	47.21
5.1649	46.06
5.1751	45.09
5.1853	44.47
5.1954	43.71
5.2056	43.29
5.2158	42.39
5.2259	41.82
5.2361	41.27
5.2462	41.06
5.2564	39.81
5.2666	40.30
5.2767	38.71
5.2869	38.99
5.2971	39.19
5.3072	37.67
5.3174	37.59
5.3276	37.01
5.3377	36.30
5.3479	35.83
5.3581	34.94
5.3682	34.76
5.3784	34.37
5.3886	34.18
5.3987	33.82
5.4089	33.01
5.419	32.64
5.4292	31.89
5.4394	32.23
5.4495	32.17
5.4597	31.84
5.4699	31.45
5.48	30.89
5.4902	30.30
5.5004	30.05
5.5105	30.35
5.5207	29.51
5.5309	29.91
5.541	29.62
5.5512	28.38
5.5613	28.89
5.5715	28.26
5.5817	28.02
5.5918	27.51
5.602	27.66
5.6122	26.94
5.6223	26.84
5.6325	26.63
5.6427	26.17
5.6528	26.85
5.663	26.12
5.6732	24.98
5.6833	25.79
5.6935	25.57
5.7036	24.80
5.7138	25.03
5.724	25.27
5.7341	24.29
5.7443	24.91
5.7545	24.89
5.7646	23.89
5.7748	24.24
5.785	24.04
5.7951	23.97
5.8053	23.65
5.8155	24.35
5.8256	23.84
5.8358	23.42
5.846	24.31
5.8561	23.90
5.8663	23.31
5.8764	23.27
5.8866	23.31
5.8968	23.38
5.9069	22.98
5.9171	23.83
5.9273	22.93
5.9374	23.39
5.9476	23.31
5.9578	22.71
5.9679	23.11
5.9781	22.43
5.9883	22.86
5.9984	22.94
6.0086	22.30
6.0187	22.71
6.0289	22.58
6.0391	22.24
6.0492	23.09
6.0594	22.59
6.0696	22.31
6.0797	22.06
6.0899	22.53
6.1001	22.53
6.1102	22.24
6.1204	22.17
6.1306	22.62
6.1407	22.28
6.1509	22.05
6.1611	22.02
6.1712	22.22
6.1814	22.17
6.1915	21.86
6.2017	21.99
6.2119	22.13
6.222	21.42
6.2322	21.40
6.2424	22.15
6.2525	21.94
6.2627	21.70
6.2729	21.68
6.283	21.96
6.2932	21.52
6.3034	21.81
6.3135	22.75
6.3237	21.49
6.3338	21.02
6.344	21.70
6.3542	21.50
6.3643	21.31
6.3745	21.59
6.3847	22.01
6.3948	21.43
6.405	21.32
6.4152	21.86
6.4253	21.49
6.4355	20.84
6.4457	21.32
6.4558	22.00
6.466	21.56
6.4762	21.50
6.4863	21.41
6.4965	21.09
6.5066	21.13
6.5168	21.49
6.527	21.06
6.5371	21.05
6.5473	21.45
6.5575	21.08
6.5676	21.66
6.5778	21.18
6.588	21.50
6.5981	21.82
6.6083	21.08
6.6185	21.53
6.6286	21.97
6.6388	21.55
6.6489	21.84
6.6591	21.72
6.6693	20.91
6.6794	21.72
6.6896	21.36
6.6998	21.28
6.7099	21.50
6.7201	21.51
6.7303	21.57
6.7404	21.27
6.7506	21.44
6.7608	21.44
6.7709	22.01
6.7811	21.25
6.7913	21.89
6.8014	21.80
6.8116	21.66
6.8217	21.45
6.8319	21.83
6.8421	21.99
6.8522	21.46
6.8624	21.46
6.8726	21.36
6.8827	22.16
6.8929	21.44
6.9031	21.09
6.9132	21.89
6.9234	21.63
6.9336	21.32
6.9437	21.42
6.9539	21.85
6.964	21.70
6.9742	21.01
6.9844	22.09
6.9945	21.73
7.0047	21.61
7.0149	22.05
7.025	21.25
7.0352	21.51
7.0454	22.03
7.0555	22.09
7.0657	21.96
7.0759	22.43
7.086	22.10
7.0962	21.45
7.1064	21.83
7.1165	21.39
7.1267	21.60
7.1368	21.64
7.147	21.89
7.1572	22.33
7.1673	21.66
7.1775	21.74
7.1877	22.08
7.1978	21.90
7.208	21.30
7.2182	22.37
7.2283	22.19
7.2385	21.75
7.2487	22.37
7.2588	22.20
7.269	22.02
7.2791	22.06
7.2893	22.42
7.2995	22.50
7.3096	21.85
7.3198	22.32
7.33	22.10
7.3401	22.59
7.3503	21.48
7.3605	21.86
7.3706	22.53
7.3808	22.04
7.391	22.10
7.4011	22.34
7.4113	22.56
7.4215	22.17
7.4316	22.25
7.4418	22.52
7.4519	22.32
7.4621	22.72
7.4723	22.16
7.4824	22.04
7.4926	22.54
7.5028	22.73
7.5129	22.31
7.5231	23.06
7.5333	22.13
7.5434	22.25
7.5536	22.62
7.5638	22.62
7.5739	22.50
7.5841	22.30
7.5942	22.38
7.6044	22.93
7.6146	22.42
7.6247	22.79
7.6349	22.35
7.6451	22.68
7.6552	22.60
7.6654	22.77
7.6756	22.73
7.6857	23.17
7.6959	22.16
7.7061	22.63
7.7162	22.42
7.7264	23.16
7.7365	22.63
7.7467	23.23
7.7569	22.83
7.767	22.65
7.7772	23.18
7.7874	22.84
7.7975	22.85
7.8077	22.97
7.8179	22.52
7.828	23.11
7.8382	23.15
7.8484	22.44
7.8585	23.09
7.8687	23.14
7.8789	23.20
7.889	23.00
7.8992	23.32
7.9093	22.78
7.9195	23.40
7.9297	23.34
7.9398	23.15
7.95	23.56
7.9602	23.50
7.9703	23.21
7.9805	23.05
7.9907	23.27
8.0008	23.24
8.011	23.25
8.0212	24.15
8.0313	23.15
8.0415	23.53
8.0516	23.97
8.0618	23.23
8.072	23.85
8.0821	24.51
8.0923	23.48
8.1025	23.79
8.1126	23.64
8.1228	23.66
8.133	23.64
8.1431	23.87
8.1533	24.05
8.1635	23.45
8.1736	24.06
8.1838	23.72
8.194	23.77
8.2041	23.71
8.2143	23.76
8.2244	24.25
8.2346	24.08
8.2448	24.01
8.2549	23.51
8.2651	24.27
8.2753	23.75
8.2854	24.03
8.2956	24.88
8.3058	23.69
8.3159	24.20
8.3261	24.20
8.3363	23.95
8.3464	24.61
8.3566	24.20
8.3667	24.22
8.3769	24.13
8.3871	24.26
8.3972	24.18
8.4074	24.18
8.4176	23.97
8.4277	24.27
8.4379	24.55
8.4481	24.27
8.4582	24.41
8.4684	24.39
8.4786	24.60
8.4887	24.54
8.4989	24.60
8.5091	24.53
8.5192	23.94
8.5294	24.69
8.5395	24.99
8.5497	24.38
8.5599	24.80
8.57	24.64
8.5802	24.55
8.5904	24.53
8.6005	24.43
8.6107	24.20
8.6209	24.87
8.631	25.05
8.6412	24.41
8.6514	25.26
8.6615	24.62
8.6717	24.51
8.6818	25.20
8.692	25.20
8.7022	25.12
8.7123	25.13
8.7225	25.45
8.7327	25.42
8.7428	25.43
8.753	25.08
8.7632	25.44
8.7733	25.59
8.7835	25.15
8.7937	24.86
8.8038	25.57
8.814	25.25
8.8242	25.39
8.8343	25.35
8.8445	26.03
8.8546	25.76
8.8648	25.71
8.875	25.96
8.8851	25.60
8.8953	25.18
8.9055	25.76
8.9156	25.67
8.9258	25.65
8.936	25.41
8.9461	25.16
8.9563	25.33
8.9665	25.52
8.9766	25.17
8.9868	26.37
8.9969	25.47
9.0071	25.47
9.0173	26.06
9.0274	26.07
9.0376	24.59
9.0478	26.16
9.0579	26.50
9.0681	25.72
9.0783	25.48
9.0884	26.61
9.0986	25.52
9.1088	26.28
9.1189	26.52
9.1291	26.24
9.1393	25.45
9.1494	26.12
9.1596	26.14
9.1697	26.50
9.1799	26.39
9.1901	26.10
9.2002	26.68
9.2104	26.33
9.2206	26.08
9.2307	26.98
9.2409	27.10
9.2511	26.39
9.2612	26.88
9.2714	26.61
9.2816	26.34
9.2917	26.59
9.3019	26.65
9.312	26.68
9.3222	26.55
9.3324	26.84
9.3425	26.34
9.3527	27.46
9.3629	26.49
9.373	26.64
9.3832	27.40
9.3934	27.39
9.4035	26.60
9.4137	27.03
9.4239	26.80
9.434	26.89
9.4442	27.42
9.4544	26.63
9.4645	26.70
9.4747	27.27
9.4848	27.45
9.495	26.68
9.5052	27.20
9.5153	27.37
9.5255	27.36
9.5357	27.37
9.5458	27.23
9.556	27.57
9.5662	27.41
9.5763	27.50
9.5865	27.47
9.5967	27.38
9.6068	28.17
9.617	27.71
9.6271	27.38
9.6373	27.23
9.6475	27.45
9.6576	27.67
9.6678	27.43
9.678	27.77
9.6881	27.91
9.6983	27.71
9.7085	27.26
9.7186	27.95
9.7288	28.32
9.739	28.38
9.7491	27.89
9.7593	27.91
9.7694	28.67
9.7796	28.41
9.7898	28.27
9.7999	28.07
9.8101	27.91
9.8203	28.04
9.8304	28.23
9.8406	28.38
9.8508	27.98
9.8609	28.45
9.8711	28.85
9.8813	27.87
9.8914	28.27
9.9016	28.89
9.9118	28.34
9.9219	28.32
9.9321	28.30
9.9422	29.06
9.9524	28.28
9.9626	28.66
9.9727	29.31
9.9829	28.65
9.9931	28.72
10.0032	29.28
10.0134	28.93
10.0236	28.84
10.0337	29.02
10.0439	29.29
10.0541	29.39
10.0642	29.09
10.0744	28.55
10.0845	28.80
10.0947	29.44
10.1049	28.98
10.115	30.14
10.1252	28.89
10.1354	29.05
10.1455	29.67
10.1557	29.16
10.1659	29.16
10.176	29.26
10.1862	29.29
10.1964	29.34
10.2065	29.64
10.2167	29.44
10.2269	29.02
10.237	29.64
10.2472	30.15
10.2573	29.46
10.2675	29.55
10.2777	29.39
10.2878	29.68
10.298	30.09
10.3082	29.82
10.3183	29.51
10.3285	29.74
10.3387	29.63
10.3488	30.21
10.359	29.77
10.3692	30.19
10.3793	29.88
10.3895	30.16
10.3996	29.57
10.4098	30.19
10.42	31.00
10.4301	30.81
10.4403	30.52
10.4505	30.39
10.4606	30.82
10.4708	30.42
10.481	30.45
10.4911	29.93
10.5013	30.46
10.5115	30.36
10.5216	30.59
10.5318	30.57
10.542	31.41
10.5521	30.79
10.5623	30.17
10.5724	31.52
10.5826	30.85
10.5928	30.19
10.6029	30.80
10.6131	30.82
10.6233	30.47
10.6334	30.35
10.6436	30.75
10.6538	30.65
10.6639	31.23
10.6741	31.02
10.6843	31.16
10.6944	31.05
10.7046	31.31
10.7147	31.73
10.7249	31.66
10.7351	31.12
10.7452	31.99
10.7554	31.94
10.7656	31.50
10.7757	31.68
10.7859	32.08
10.7961	31.87
10.8062	31.62
10.8164	31.41
10.8266	32.27
10.8367	31.26
10.8469	31.57
10.8571	31.76
10.8672	31.79
10.8774	31.85
10.8875	32.59
10.8977	31.56
10.9079	31.65
10.918	32.13
10.9282	31.38
10.9384	32.35
10.9485	32.45
10.9587	32.17
10.9689	32.48
10.979	32.23
10.9892	32.77
10.9994	32.45
11.0095	32.51
11.0197	31.94
11.0298	31.97
11.04	32.28
11.0502	32.57
11.0603	32.43
11.0705	32.41
11.0807	32.31
11.0908	33.23
11.101	32.98
11.1112	33.08
11.1213	32.80
11.1315	33.38
11.1417	33.11
11.1518	32.59
11.162	32.79
11.1722	33.34
11.1823	32.79
11.1925	33.17
11.2026	32.65
11.2128	33.03
11.223	33.52
11.2331	32.39
11.2433	33.20
11.2535	33.79
11.2636	34.10
11.2738	33.14
11.284	33.51
11.2941	33.49
11.3043	33.07
11.3145	33.57
11.3246	33.09
11.3348	34.25
11.3449	34.16
11.3551	33.65
11.3653	33.97
11.3754	33.91
11.3856	33.34
11.3958	34.64
11.4059	34.45
11.4161	34.88
11.4263	34.31
11.4364	34.50
11.4466	33.70
11.4568	33.95
11.4669	34.91
11.4771	34.61
11.4873	34.49
11.4974	34.57
11.5076	34.42
11.5177	34.48
11.5279	34.53
11.5381	33.97
11.5482	34.96
11.5584	34.86
11.5686	34.37
11.5787	34.05
11.5889	34.38
11.5991	34.84
11.6092	35.35
11.6194	35.28
11.6296	34.73
11.6397	35.22
11.6499	35.12
11.66	35.50
11.6702	35.70
11.6804	35.20
11.6905	35.51
11.7007	35.77
11.7109	35.94
11.721	35.32
11.7312	35.78
11.7414	35.61
11.7515	35.51
11.7617	35.19
11.7719	35.29
11.782	35.83
11.7922	36.26
11.8023	35.92
11.8125	36.08
11.8227	36.21
11.8328	35.91
11.843	36.20
11.8532	36.12
11.8633	36.73
11.8735	36.29
11.8837	36.08
11.8938	36.68
11.904	35.80
11.9142	37.00
11.9243	36.36
11.9345	36.72
11.9447	35.94
11.9548	36.57
11.965	36.28
11.9751	37.33
11.9853	36.88
11.9955	36.59
12.0056	36.74
12.0158	36.74
12.026	37.07
12.0361	36.61
12.0463	37.30
12.0565	37.77
12.0666	37.45
12.0768	36.88
12.087	37.69
12.0971	37.64
12.1073	37.56
12.1174	37.52
12.1276	36.95
12.1378	37.96
12.1479	37.63
12.1581	38.10
12.1683	38.23
12.1784	37.95
12.1886	38.11
12.1988	38.31
12.2089	37.84
12.2191	38.29
12.2293	38.51
12.2394	37.74
12.2496	38.59
12.2598	38.20
12.2699	38.22
12.2801	38.99
12.2902	38.56
12.3004	38.73
12.3106	38.70
12.3207	38.72
12.3309	38.60
12.3411	38.68
12.3512	38.75
12.3614	39.46
12.3716	39.08
12.3817	39.10
12.3919	40.07
12.4021	39.78
12.4122	39.85
12.4224	39.09
12.4325	39.88
12.4427	39.42
12.4529	39.57
12.463	39.34
12.4732	39.11
12.4834	40.06
12.4935	39.25
12.5037	40.22
12.5139	39.84
12.524	40.30
12.5342	40.26
12.5444	40.55
12.5545	40.48
12.5647	39.37
12.5749	39.92
12.585	41.42
12.5952	40.58
12.6053	40.09
12.6155	40.65
12.6257	41.15
12.6358	40.60
12.646	40.70
12.6562	41.23
12.6663	40.49
12.6765	40.93
12.6867	40.97
12.6968	40.98
12.707	41.01
12.7172	41.17
12.7273	41.58
12.7375	41.64
12.7476	40.88
12.7578	41.54
12.768	41.33
12.7781	41.20
12.7883	42.30
12.7985	41.86
12.8086	42.17
12.8188	41.88
12.829	42.72
12.8391	42.04
12.8493	42.87
12.8595	42.70
12.8696	41.86
12.8798	42.84
12.89	43.04
12.9001	42.70
12.9103	42.57
12.9204	42.43
12.9306	42.92
12.9408	43.12
12.9509	43.20
12.9611	43.09
12.9713	43.16
12.9814	42.60
12.9916	42.58
13.0018	43.13
13.0119	43.30
13.0221	43.94
13.0323	43.59
13.0424	43.79
13.0526	43.64
13.0627	43.77
13.0729	43.52
13.0831	44.49
13.0932	44.20
13.1034	43.98
13.1136	45.08
13.1237	44.56
13.1339	44.80
13.1441	45.20
13.1542	44.39
13.1644	43.30
13.1746	44.00
13.1847	44.72
13.1949	44.91
13.2051	44.91
13.2152	46.00
13.2254	45.10
13.2355	45.27
13.2457	45.64
13.2559	45.11
13.266	45.77
13.2762	45.52
13.2864	45.61
13.2965	45.40
13.3067	45.77
13.3169	46.07
13.327	46.38
13.3372	46.96
13.3474	46.46
13.3575	46.51
13.3677	46.66
13.3778	46.95
13.388	46.68
13.3982	47.13
13.4083	47.52
13.4185	46.87
13.4287	47.01
13.4388	46.55
13.449	46.99
13.4592	47.59
13.4693	47.04
13.4795	47.53
13.4897	47.86
13.4998	47.84
13.51	47.86
13.5201	48.00
13.5303	48.03
13.5405	47.66
13.5506	48.00
13.5608	48.17
13.571	48.34
13.5811	48.59
13.5913	49.03
13.6015	48.58
13.6116	49.60
13.6218	48.90
13.632	48.66
13.6421	49.01
13.6523	48.83
13.6625	48.65
13.6726	49.15
13.6828	48.44
13.6929	49.29
13.7031	48.71
13.7133	49.74
13.7234	49.20
13.7336	50.20
13.7438	49.42
13.7539	49.95
13.7641	50.27
13.7743	49.99
13.7844	50.97
13.7946	50.34
13.8048	50.66
13.8149	50.36
13.8251	50.49
13.8352	50.68
13.8454	50.70
13.8556	51.22
13.8657	50.68
13.8759	51.48
13.8861	52.63
13.8962	51.43
13.9064	51.11
13.9166	52.28
13.9267	51.48
13.9369	51.30
13.9471	52.21
13.9572	52.13
13.9674	51.99
13.9776	52.46
13.9877	52.33
13.9979	51.93
14.008	53.01
14.0182	52.58
14.0284	53.10
14.0385	53.15
14.0487	52.89
14.0589	52.53
14.069	54.02
14.0792	53.20
14.0894	53.06
14.0995	52.94
14.1097	53.11
14.1199	53.12
14.13	54.31
14.1402	53.93
14.1503	54.35
14.1605	54.44
14.1707	54.98
14.1808	54.55
14.191	54.52
14.2012	54.63
14.2113	54.70
14.2215	55.12
14.2317	54.29
14.2418	55.79
14.252	55.37
14.2622	55.18
14.2723	54.81
14.2825	55.58
14.2927	55.91
14.3028	55.64
14.313	56.75
14.3231	56.26
14.3333	55.91
14.3435	56.63
14.3536	57.27
14.3638	56.72
14.374	57.03
14.3841	56.96
14.3943	57.85
14.4045	57.83
14.4146	57.21
14.4248	57.30
14.435	58.10
14.4451	57.42
14.4553	57.95
14.4654	57.71
14.4756	57.55
14.4858	58.10
14.4959	58.21
14.5061	58.40
14.5163	57.90
14.5264	59.44
14.5366	58.41
14.5468	59.83
14.5569	59.01
14.5671	59.68
14.5773	58.48
14.5874	60.04
14.5976	59.53
14.6078	58.73
14.6179	59.83
14.6281	60.29
14.6382	61.40
14.6484	59.92
14.6586	60.87
14.6687	60.63
14.6789	60.19
14.6891	60.30
14.6992	60.20
14.7094	62.21
14.7196	61.62
14.7297	61.48
14.7399	62.05
14.7501	61.57
14.7602	61.49
14.7704	61.79
14.7805	62.41
14.7907	61.70
14.8009	61.68
14.811	63.05
14.8212	62.44
14.8314	62.41
14.8415	62.91
14.8517	62.52
14.8619	63.22
14.872	63.04
14.8822	62.76
14.8924	63.83
14.9025	63.31
14.9127	64.13
14.9229	64.34
14.933	65.02
14.9432	64.27
14.9533	64.77
14.9635	65.20
14.9737	65.25
14.9838	64.91
14.994	64.95
15.0042	64.27
15.0143	64.61
15.0245	65.16
15.0347	65.00
15.0448	65.23
15.055	66.16
15.0652	66.51
15.0753	66.76
15.0855	65.86
15.0956	66.05
15.1058	67.11
15.116	66.66
15.1261	66.54
15.1363	67.06
15.1465	66.91
15.1566	67.69
15.1668	67.21
15.177	67.20
15.1871	66.71
15.1973	67.89
15.2075	67.80
15.2176	68.19
15.2278	68.32
15.238	68.82
15.2481	68.51
15.2583	68.79
15.2684	68.97
15.2786	69.51
15.2888	69.07
15.2989	68.50
15.3091	69.12
15.3193	70.25
15.3294	70.36
15.3396	69.74
15.3498	69.99
15.3599	69.91
15.3701	70.98
15.3803	71.66
15.3904	71.73
15.4006	70.30
15.4107	71.00
15.4209	71.69
15.4311	72.09
15.4412	72.48
15.4514	72.84
15.4616	72.00
15.4717	73.18
15.4819	71.92
15.4921	72.61
15.5022	73.04
15.5124	73.14
15.5226	73.22
15.5327	73.82
15.5429	74.03
15.553	73.37
15.5632	73.80
15.5734	73.77
15.5835	73.48
15.5937	74.06
15.6039	73.81
15.614	75.39
15.6242	75.11
15.6344	75.68
15.6445	74.91
15.6547	76.63
15.6649	75.95
15.675	75.29
15.6852	75.49
15.6954	75.47
15.7055	76.70
15.7157	75.84
15.7258	77.00
15.736	77.11
15.7462	76.90
15.7563	77.29
15.7665	76.65
15.7767	77.90
15.7868	76.77
15.797	77.95
15.8072	77.61
15.8173	78.23
15.8275	77.97
15.8377	79.05
15.8478	78.25
15.858	79.27
15.8681	79.78
15.8783	78.37
15.8885	79.80
15.8986	79.87
15.9088	79.54
15.919	80.40
15.9291	79.93
15.9393	79.75
15.9495	80.51
15.9596	81.38
15.9698	80.71
15.98	81.30
15.9901	80.71
16.0003	80.89
16.0105	81.68
16.0206	82.33
16.0308	82.67
16.0409	82.24
16.0511	81.93
16.0613	82.28
16.0714	82.49
16.0816	83.45
16.0918	82.49
16.1019	83.22
16.1121	84.46
16.1223	84.50
16.1324	84.14
16.1426	85.15
16.1528	84.69
16.1629	84.88
16.1731	85.66
16.1832	84.66
16.1934	85.94
16.2036	84.91
16.2137	86.02
16.2239	86.05
16.2341	87.11
16.2442	85.75
16.2544	86.67
16.2646	86.74
16.2747	87.06
16.2849	87.61
16.2951	88.23
16.3052	88.00
16.3154	88.62
16.3256	88.17
16.3357	87.80
16.3459	87.70
16.356	88.18
16.3662	88.86
16.3764	88.83
16.3865	89.47
16.3967	89.02
16.4069	90.09
16.417	89.86
16.4272	90.68
16.4374	90.21
16.4475	91.13
16.4577	90.80
16.4679	91.54
16.478	92.87
16.4882	91.20
16.4983	91.42
16.5085	92.80
16.5187	91.37
16.5288	92.39
16.539	92.57
16.5492	94.05
16.5593	93.54
16.5695	93.82
16.5797	93.85
16.5898	93.17
16.6	94.27
16.6102	95.67
16.6203	95.08
16.6305	96.14
16.6407	96.03
16.6508	95.72
16.661	95.80
16.6711	96.37
16.6813	95.97
16.6915	96.10
16.7016	95.90
16.7118	96.78
16.722	96.94
16.7321	97.70
16.7423	98.55
16.7525	97.89
16.7626	97.77
16.7728	97.47
16.783	99.45
16.7931	98.91
16.8033	99.56
16.8134	100.31
16.8236	98.71
16.8338	98.12
16.8439	100.55
16.8541	99.77
16.8643	99.52
16.8744	101.80
16.8846	100.77
16.8948	100.04
16.9049	101.55
16.9151	100.88
16.9253	101.18
16.9354	102.08
16.9456	101.24
16.9558	102.33
16.9659	102.41
16.9761	102.71
16.9862	103.55
16.9964	102.86
17.0066	102.27
17.0167	103.24
17.0269	103.60
17.0371	103.10
17.0472	103.23
17.0574	103.67
17.0676	104.18
17.0777	104.73
17.0879	105.34
17.0981	104.86
17.1082	104.40
17.1184	104.91
17.1285	105.20
17.1387	105.00
17.1489	107.00
17.159	105.74
17.1692	106.36
17.1794	106.08
17.1895	105.84
17.1997	106.46
17.2099	107.46
17.22	107.91
17.2302	107.90
17.2404	107.06
17.2505	107.95
17.2607	107.42
17.2709	107.87
17.281	106.88
17.2912	108.24
17.3013	110.11
17.3115	108.55
17.3217	109.82
17.3318	109.67
17.342	110.79
17.3522	109.05
17.3623	110.65
17.3725	110.09
17.3827	110.22
17.3928	111.18
17.403	112.85
17.4132	111.60
17.4233	112.76
17.4335	111.80
17.4436	113.59
17.4538	113.83
17.464	113.04
17.4741	113.09
17.4843	114.36
17.4945	113.29
17.5046	114.60
17.5148	115.52
17.525	114.63
17.5351	115.49
17.5453	116.58
17.5555	116.55
17.5656	118.16
17.5758	119.22
17.5859	117.66
17.5961	117.64
17.6063	118.75
17.6164	119.52
17.6266	119.02
17.6368	120.09
17.6469	118.70
17.6571	118.95
17.6673	122.28
17.6774	120.93
17.6876	122.23
17.6978	123.59
17.7079	122.46
17.7181	123.08
17.7283	124.49
17.7384	123.79
17.7486	124.51
17.7587	126.64
17.7689	126.29
17.7791	127.45
17.7892	127.80
17.7994	128.35
17.8096	128.85
17.8197	130.45
17.8299	129.46
17.8401	129.33
17.8502	131.52
17.8604	132.27
17.8706	132.17
17.8807	133.67
17.8909	134.21
17.901	135.05
17.9112	138.28
17.9214	136.72
17.9315	137.72
17.9417	140.10
17.9519	139.48
17.962	140.49
17.9722	144.97
17.9824	142.67
17.9925	142.89
18.0027	145.06
18.0129	146.04
18.023	147.34
18.0332	150.37
18.0434	150.11
18.0535	150.95
18.0637	152.78
18.0738	153.77
18.084	153.98
18.0942	155.80
18.1043	158.15
18.1145	158.71
18.1247	162.11
18.1348	162.47
18.145	163.59
18.1552	168.51
18.1653	167.42
18.1755	167.77
18.1857	173.62
18.1958	173.17
18.206	174.72
18.2161	179.04
18.2263	179.99
18.2365	180.68
18.2466	183.04
18.2568	186.69
18.267	186.70
18.2771	191.88
18.2873	193.62
18.2975	194.73
18.3076	198.31
18.3178	200.75
18.328	202.16
18.3381	206.16
18.3483	208.99
18.3585	211.53
18.3686	216.24
18.3788	218.53
18.3889	218.84
18.3991	223.91
18.4093	226.83
18.4194	227.98
18.4296	230.33
18.4398	236.94
18.4499	237.78
18.4601	242.65
18.4703	246.16
18.4804	246.30
18.4906	250.94
18.5008	252.82
18.5109	256.23
18.5211	260.50
18.5312	262.15
18.5414	262.07
18.5516	266.81
18.5617	266.87
18.5719	267.05
18.5821	273.25
18.5922	273.37
18.6024	274.20
18.6126	275.85
18.6227	277.66
18.6329	276.97
18.6431	279.87
18.6532	279.65
18.6634	278.20
18.6736	279.77
18.6837	278.97
18.6939	278.33
18.704	277.82
18.7142	276.77
18.7244	274.88
18.7345	274.08
18.7447	272.75
18.7549	270.63
18.765	269.37
18.7752	266.27
18.7854	262.89
18.7955	262.15
18.8057	259.58
18.8159	256.28
18.826	255.16
18.8362	252.03
18.8463	247.35
18.8565	244.65
18.8667	241.55
18.8768	236.05
18.887	233.78
18.8972	231.94
18.9073	226.23
18.9175	225.41
18.9277	221.92
18.9378	217.12
18.948	215.75
18.9582	213.82
18.9683	207.72
18.9785	207.32
18.9887	204.12
18.9988	199.95
19.009	197.78
19.0191	194.91
19.0293	192.24
19.0395	189.53
19.0496	187.46
19.0598	183.94
19.07	182.92
19.0801	180.07
19.0903	178.68
19.1005	177.51
19.1106	174.80
19.1208	171.52
19.131	170.10
19.1411	169.30
19.1513	165.75
19.1614	165.04
19.1716	162.62
19.1818	161.86
19.1919	161.79
19.2021	159.19
19.2123	157.70
19.2224	156.94
19.2326	155.52
19.2428	153.82
19.2529	153.03
19.2631	151.38
19.2733	150.65
19.2834	148.76
19.2936	148.90
19.3038	146.08
19.3139	147.07
19.3241	145.62
19.3342	145.25
19.3444	145.25
19.3546	144.18
19.3647	141.31
19.3749	141.27
19.3851	141.17
19.3952	139.12
19.4054	140.35
19.4156	139.03
19.4257	137.04
19.4359	138.17
19.4461	138.13
19.4562	135.96
19.4664	135.57
19.4765	135.82
19.4867	135.32
19.4969	134.40
19.507	135.09
19.5172	133.33
19.5274	135.25
19.5375	135.46
19.5477	131.68
19.5579	133.73
19.568	133.34
19.5782	131.46
19.5884	133.23
19.5985	132.32
19.6087	131.58
19.6188	132.42
19.629	131.34
19.6392	130.65
19.6493	132.64
19.6595	131.45
19.6697	131.34
19.6798	131.02
19.69	130.11
19.7002	130.72
19.7103	130.93
19.7205	130.50
19.7307	128.52
19.7408	130.03
19.751	130.98
19.7612	129.43
19.7713	128.46
19.7815	130.19
19.7916	129.03
19.8018	130.11
19.812	129.91
19.8221	130.05
19.8323	129.71
19.8425	128.80
19.8526	129.29
19.8628	130.08
19.873	129.85
19.8831	130.27
19.8933	131.01
19.9035	129.86
19.9136	129.67
19.9238	131.46
19.9339	131.50
19.9441	129.95
19.9543	130.62
19.9644	132.79
19.9746	129.86
19.9848	132.63
19.9949	131.92
20.0051	130.30
20.0153	131.50
20.0254	133.81
20.0356	131.98
20.0458	134.35
20.0559	132.83
20.0661	133.38
20.0763	134.27
20.0864	134.72
20.0966	133.10
20.1067	135.17
20.1169	135.73
20.1271	134.67
20.1372	135.96
20.1474	136.18
20.1576	135.74
20.1677	136.20
20.1779	137.66
20.1881	137.41
20.1982	137.85
20.2084	137.71
20.2186	137.74
20.2287	139.22
20.2389	139.85
20.249	140.04
20.2592	139.30
20.2694	140.23
20.2795	141.19
20.2897	143.28
20.2999	142.24
20.31	142.52
20.3202	143.48
20.3304	143.84
20.3405	145.49
20.3507	144.93
20.3609	145.77
20.371	145.09
20.3812	145.85
20.3914	145.91
20.4015	146.70
20.4117	147.57
20.4218	147.39
20.432	147.77
20.4422	149.32
20.4523	149.80
20.4625	150.02
20.4727	149.76
20.4828	150.89
20.493	150.13
20.5032	151.19
20.5133	150.67
20.5235	149.67
20.5337	152.46
20.5438	151.63
20.554	151.39
20.5641	151.54
20.5743	153.37
20.5845	150.92
20.5946	152.07
20.6048	151.70
20.615	151.81
20.6251	153.02
20.6353	151.73
20.6455	150.93
20.6556	150.96
20.6658	150.38
20.676	149.89
20.6861	151.67
20.6963	149.45
20.7065	149.09
20.7166	150.54
20.7268	147.88
20.7369	147.21
20.7471	148.31
20.7573	147.99
20.7674	146.08
20.7776	148.69
20.7878	146.95
20.7979	144.32
20.8081	145.41
20.8183	145.21
20.8284	143.70
20.8386	143.13
20.8488	142.91
20.8589	140.45
20.8691	141.02
20.8792	140.60
20.8894	137.63
20.8996	138.84
20.9097	138.32
20.9199	137.31
20.9301	137.17
20.9402	136.59
20.9504	134.23
20.9606	135.13
20.9707	133.91
20.9809	132.56
20.9911	132.45
21.0012	131.93
21.0114	130.89
21.0216	130.22
21.0317	130.29
21.0419	129.47
21.052	128.85
21.0622	127.06
21.0724	127.20
21.0825	127.33
21.0927	125.03
21.1029	125.51
21.113	125.98
21.1232	125.58
21.1334	124.29
21.1435	124.21
21.1537	122.39
21.1639	122.83
21.174	121.91
21.1842	122.14
21.1943	120.26
21.2045	122.08
21.2147	121.67
21.2248	119.23
21.235	120.56
21.2452	120.41
21.2553	118.54
21.2655	119.60
21.2757	118.84
21.2858	118.42
21.296	119.34
21.3062	118.84
21.3163	117.63
21.3265	118.36
21.3366	118.39
21.3468	117.40
21.357	118.05
21.3671	118.07
21.3773	116.75
21.3875	117.27
21.3976	117.22
21.4078	115.90
21.418	116.78
21.4281	117.22
21.4383	116.28
21.4485	117.03
21.4586	116.16
21.4688	116.65
21.479	118.62
21.4891	116.98
21.4993	116.24
21.5094	116.79
21.5196	117.11
21.5298	116.73
21.5399	117.90
21.5501	117.65
21.5603	116.88
21.5704	119.31
21.5806	120.51
21.5908	118.62
21.6009	121.14
21.6111	121.41
21.6213	121.09
21.6314	121.99
21.6416	121.74
21.6517	121.47
21.6619	123.95
21.6721	124.04
21.6822	123.79
21.6924	125.56
21.7026	126.75
21.7127	126.60
21.7229	128.02
21.7331	129.10
21.7432	127.14
21.7534	129.32
21.7636	130.02
21.7737	130.40
21.7839	134.39
21.7941	134.60
21.8042	132.89
21.8144	136.06
21.8245	135.99
21.8347	135.65
21.8449	138.01
21.855	139.18
21.8652	137.71
21.8754	140.61
21.8855	141.77
21.8957	139.83
21.9059	141.83
21.916	144.02
21.9262	142.03
21.9364	144.29
21.9465	145.63
21.9567	144.42
21.9668	144.71
21.977	145.09
21.9872	144.27
21.9973	145.95
22.0075	146.87
22.0177	146.39
22.0278	147.94
22.038	149.03
22.0482	149.04
22.0583	151.12
22.0685	150.47
22.0787	150.80
22.0888	153.24
22.099	154.68
22.1092	153.52
22.1193	156.36
22.1295	156.84
22.1396	155.98
22.1498	156.98
22.16	159.73
22.1701	158.29
22.1803	162.48
22.1905	163.06
22.2006	161.78
22.2108	164.86
22.221	164.67
22.2311	164.11
22.2413	166.09
22.2515	167.73
22.2616	167.55
22.2718	169.99
22.2819	169.27
22.2921	169.60
22.3023	171.22
22.3124	172.33
22.3226	169.92
22.3328	173.10
22.3429	174.26
22.3531	172.49
22.3633	174.58
22.3734	176.00
22.3836	174.15
22.3938	176.44
22.4039	177.47
22.4141	175.71
22.4243	176.40
22.4344	177.76
22.4446	176.49
22.4547	177.74
22.4649	178.90
22.4751	176.56
22.4852	176.00
22.4954	176.42
22.5056	174.96
22.5157	178.22
22.5259	175.70
22.5361	174.45
22.5462	174.84
22.5564	174.07
22.5666	174.56
22.5767	172.93
22.5869	173.79
22.597	171.42
22.6072	172.25
22.6174	170.04
22.6275	168.40
22.6377	169.30
22.6479	170.60
22.658	165.16
22.6682	167.05
22.6784	167.65
22.6885	163.59
22.6987	164.78
22.7089	163.74
22.719	161.14
22.7292	161.62
22.7394	160.52
22.7495	157.16
22.7597	158.10
22.7698	157.02
22.78	154.00
22.7902	155.37
22.8003	154.24
22.8105	150.00
22.8207	152.16
22.8308	151.12
22.841	148.70
22.8512	148.57
22.8613	147.37
22.8715	144.47
22.8817	145.46
22.8918	143.10
22.902	141.86
22.9121	140.59
22.9223	138.91
22.9325	138.28
22.9426	137.92
22.9528	137.51
22.963	135.91
22.9731	134.55
22.9833	133.95
22.9935	133.40
23.0036	131.41
23.0138	129.87
23.024	128.41
23.0341	127.98
23.0443	127.39
23.0545	126.48
23.0646	124.65
23.0748	125.15
23.0849	123.11
23.0951	121.20
23.1053	121.38
23.1154	120.11
23.1256	118.58
23.1358	117.46
23.1459	116.67
23.1561	116.21
23.1663	115.92
23.1764	113.43
23.1866	113.41
23.1968	112.52
23.2069	112.17
23.2171	110.69
23.2272	110.44
23.2374	109.13
23.2476	108.15
23.2577	107.53
23.2679	106.45
23.2781	106.13
23.2882	105.60
23.2984	104.75
23.3086	105.09
23.3187	102.99
23.3289	102.13
23.3391	100.80
23.3492	100.69
23.3594	100.28
23.3695	99.33
23.3797	98.48
23.3899	97.86
23.4	96.95
23.4102	97.28
23.4204	96.90
23.4305	94.64
23.4407	95.73
23.4509	94.12
23.461	94.28
23.4712	93.46
23.4814	92.81
23.4915	92.87
23.5017	91.04
23.5119	90.50
23.522	90.27
23.5322	90.24
23.5423	87.77
23.5525	89.33
23.5627	88.92
23.5728	87.47
23.583	87.24
23.5932	87.00
23.6033	86.27
23.6135	86.17
23.6237	85.54
23.6338	83.44
23.644	84.61
23.6542	83.80
23.6643	83.33
23.6745	83.30
23.6846	82.20
23.6948	82.21
23.705	82.29
23.7151	81.29
23.7253	81.17
23.7355	79.59
23.7456	81.38
23.7558	79.61
23.766	79.11
23.7761	79.31
23.7863	78.93
23.7965	79.18
23.8066	77.32
23.8168	77.91
23.827	78.14
23.8371	77.43
23.8473	75.68
23.8574	75.58
23.8676	75.66
23.8778	75.55
23.8879	76.44
23.8981	74.39
23.9083	74.26
23.9184	74.71
23.9286	74.70
23.9388	73.33
23.9489	73.34
23.9591	73.24
23.9693	72.70
23.9794	73.14
23.9896	72.55
23.9997	71.97
24.0099	72.16
24.0201	72.82
24.0302	71.13
24.0404	72.29
24.0506	71.27
24.0607	70.79
24.0709	69.83
24.0811	70.44
24.0912	70.27
24.1014	70.27
24.1116	69.07
24.1217	69.13
24.1319	69.54
24.1421	68.38
24.1522	68.42
24.1624	67.86
24.1725	67.80
24.1827	67.13
24.1929	67.87
24.203	68.28
24.2132	68.16
24.2234	67.13
24.2335	68.02
24.2437	67.90
24.2539	67.30
24.264	66.22
24.2742	66.48
24.2844	66.63
24.2945	66.82
24.3047	65.77
24.3148	65.87
24.325	65.58
24.3352	65.90
24.3453	65.04
24.3555	64.48
24.3657	65.28
24.3758	64.98
24.386	63.55
24.3962	64.17
24.4063	63.87
24.4165	64.58
24.4267	64.84
24.4368	63.95
24.447	64.48
24.4572	63.51
24.4673	63.52
24.4775	63.73
24.4876	63.86
24.4978	63.34
24.508	63.95
24.5181	62.51
24.5283	63.35
24.5385	62.38
24.5486	63.13
24.5588	62.79
24.569	61.96
24.5791	61.55
24.5893	62.71
24.5995	61.98
24.6096	61.93
24.6198	61.73
24.6299	61.42
24.6401	61.79
24.6503	61.43
24.6604	61.64
24.6706	61.01
24.6808	61.07
24.6909	61.81
24.7011	60.91
24.7113	61.14
24.7214	61.28
24.7316	60.80
24.7418	61.27
24.7519	61.03
24.7621	60.47
24.7723	59.48
24.7824	60.42
24.7926	60.24
24.8027	60.58
24.8129	60.04
24.8231	59.05
24.8332	60.46
24.8434	59.76
24.8536	59.90
24.8637	60.17
24.8739	59.41
24.8841	58.45
24.8942	59.60
24.9044	59.43
24.9146	59.76
24.9247	59.25
24.9349	59.61
24.945	58.76
24.9552	58.87
24.9654	58.71
24.9755	58.59
24.9857	58.98
24.9959	58.26
25.006	59.27
25.0162	58.32
25.0264	57.98
25.0365	58.38
25.0467	57.99
25.0569	58.11
25.067	59.02
25.0772	57.91
25.0874	58.49
25.0975	58.50
25.1077	58.30
25.1178	58.17
25.128	58.11
25.1382	57.69
25.1483	57.80
25.1585	57.41
25.1687	57.50
25.1788	57.24
25.189	58.11
25.1992	57.34
25.2093	56.81
25.2195	57.65
25.2297	57.46
25.2398	57.88
25.25	56.71
25.2601	57.27
25.2703	57.37
25.2805	57.29
25.2906	57.15
25.3008	55.78
25.311	57.19
25.3211	57.02
25.3313	57.18
25.3415	56.37
25.3516	56.43
25.3618	56.28
25.372	56.12
25.3821	55.94
25.3923	57.12
25.4024	56.94
25.4126	56.25
25.4228	56.46
25.4329	55.26
25.4431	56.65
25.4533	55.91
25.4634	56.02
25.4736	54.57
25.4838	56.32
25.4939	56.14
25.5041	56.26
25.5143	55.66
25.5244	56.04
25.5346	56.14
25.5448	56.13
25.5549	56.09
25.5651	55.78
25.5752	55.82
25.5854	55.25
25.5956	55.33
25.6057	55.75
25.6159	55.77
25.6261	55.77
25.6362	55.60
25.6464	55.67
25.6566	55.09
25.6667	55.14
25.6769	55.83
25.6871	55.32
25.6972	54.77
25.7074	54.95
25.7175	55.29
25.7277	55.77
25.7379	53.82
25.748	54.52
25.7582	55.33
25.7684	54.35
25.7785	54.38
25.7887	54.79
25.7989	53.91
25.809	53.10
25.8192	54.14
25.8294	53.13
25.8395	53.55
25.8497	53.62
25.8599	54.41
25.87	54.07
25.8802	54.04
25.8903	53.98
25.9005	53.57
25.9107	54.02
25.9208	54.22
25.931	52.91
25.9412	53.77
25.9513	54.23
25.9615	52.89
25.9717	53.23
25.9818	52.78
25.992	53.74
26.0022	53.55
26.0123	53.38
26.0225	52.46
26.0326	52.73
26.0428	52.56
26.053	52.94
26.0631	52.98
26.0733	53.07
26.0835	52.11
26.0936	52.67
26.1038	52.24
26.114	52.18
26.1241	53.04
26.1343	51.77
26.1445	52.63
26.1546	51.88
26.1648	51.52
26.175	52.45
26.1851	51.74
26.1953	52.19
26.2054	52.12
26.2156	51.94
26.2258	51.53
26.2359	50.90
26.2461	51.74
26.2563	51.95
26.2664	51.26
26.2766	51.59
26.2868	51.01
26.2969	51.67
26.3071	51.45
26.3173	50.58
26.3274	51.27
26.3376	51.88
26.3477	51.58
26.3579	50.73
26.3681	51.77
26.3782	51.89
26.3884	50.87
26.3986	50.17
26.4087	50.85
26.4189	50.59
26.4291	50.54
26.4392	50.88
26.4494	51.11
26.4596	50.18
26.4697	50.55
26.4799	50.19
26.4901	50.58
26.5002	50.23
26.5104	50.91
26.5205	49.59
26.5307	49.64
26.5409	50.41
26.551	50.18
26.5612	49.83
26.5714	50.03
26.5815	50.09
26.5917	49.48
26.6019	49.17
26.612	50.13
26.6222	50.37
26.6324	49.86
26.6425	49.03
26.6527	49.45
26.6628	49.74
26.673	49.79
26.6832	49.96
26.6933	49.06
26.7035	49.48
26.7137	49.05
26.7238	49.09
26.734	49.65
26.7442	48.60
26.7543	49.68
26.7645	49.69
26.7747	48.47
26.7848	49.01
26.795	48.89
26.8052	49.47
26.8153	49.38
26.8255	48.96
26.8356	49.01
26.8458	48.19
26.856	49.49
26.8661	48.90
26.8763	48.94
26.8865	48.71
26.8966	48.73
26.9068	49.77
26.917	49.27
26.9271	49.01
26.9373	48.35
26.9475	48.88
26.9576	49.36
26.9678	49.37
26.9779	48.40
26.9881	48.60
26.9983	48.96
27.0084	49.05
27.0186	49.29
27.0288	48.75
27.0389	48.71
27.0491	48.65
27.0593	48.38
27.0694	48.44
27.0796	49.35
27.0898	48.35
27.0999	48.55
27.1101	47.70
27.1202	48.50
27.1304	48.63
27.1406	48.39
27.1507	47.89
27.1609	49.29
27.1711	48.45
27.1812	48.73
27.1914	48.26
27.2016	48.11
27.2117	48.21
27.2219	48.91
27.2321	48.68
27.2422	47.89
27.2524	48.66
27.2626	48.70
27.2727	48.60
27.2829	49.36
27.293	48.25
27.3032	48.54
27.3134	48.73
27.3235	48.11
27.3337	48.56
27.3439	49.02
27.354	48.84
27.3642	48.66
27.3744	48.37
27.3845	48.79
27.3947	48.78
27.4049	48.82
27.415	48.72
27.4252	49.13
27.4353	48.29
27.4455	48.82
27.4557	49.23
27.4658	49.68
27.476	48.93
27.4862	49.31
27.4963	49.26
27.5065	49.72
27.5167	49.05
27.5268	49.45
27.537	49.74
27.5472	49.57
27.5573	49.94
27.5675	50.16
27.5777	49.75
27.5878	49.81
27.598	50.16
27.6081	50.56
27.6183	50.20
27.6285	50.95
27.6386	51.15
27.6488	51.01
27.659	50.38
27.6691	51.18
27.6793	51.48
27.6895	51.19
27.6996	51.43
27.7098	51.38
27.72	52.05
27.7301	51.54
27.7403	51.32
27.7504	52.12
27.7606	52.81
27.7708	51.88
27.7809	52.61
27.7911	53.08
27.8013	53.26
27.8114	53.13
27.8216	53.28
27.8318	54.02
27.8419	54.56
27.8521	54.76
27.8623	54.11
27.8724	54.59
27.8826	54.52
27.8928	55.87
27.9029	55.59
27.9131	55.75
27.9232	55.11
27.9334	56.79
27.9436	56.53
27.9537	57.41
27.9639	57.55
27.9741	57.45
27.9842	57.79
27.9944	57.95
28.0046	58.37
28.0147	58.52
28.0249	59.07
28.0351	59.30
28.0452	59.97
28.0554	60.37
28.0655	59.71
28.0757	60.31
28.0859	60.94
28.096	61.72
28.1062	62.37
28.1164	62.65
28.1265	62.02
28.1367	64.47
28.1469	63.66
28.157	63.92
28.1672	65.19
28.1774	65.23
28.1875	64.31
28.1977	65.59
28.2079	66.46
28.218	66.38
28.2282	66.73
28.2383	68.15
28.2485	67.51
28.2587	67.98
28.2688	68.79
28.279	69.25
28.2892	70.66
28.2993	70.72
28.3095	69.60
28.3197	71.26
28.3298	71.60
28.34	71.48
28.3502	71.91
28.3603	72.23
28.3705	72.32
28.3806	72.35
28.3908	72.63
28.401	72.99
28.4111	73.55
28.4213	72.69
28.4315	73.40
28.4416	74.49
28.4518	74.50
28.462	74.37
28.4721	74.82
28.4823	75.27
28.4925	74.51
28.5026	74.15
28.5128	75.51
28.523	74.51
28.5331	75.28
28.5433	75.47
28.5534	75.19
28.5636	75.23
28.5738	75.20
28.5839	75.20
28.5941	74.78
28.6043	74.95
28.6144	73.67
28.6246	74.99
28.6348	74.43
28.6449	74.92
28.6551	73.59
28.6653	73.60
28.6754	73.68
28.6856	73.57
28.6957	73.83
28.7059	72.54
28.7161	72.41
28.7262	72.17
28.7364	71.37
28.7466	71.34
28.7567	70.84
28.7669	71.46
28.7771	70.46
28.7872	71.02
28.7974	68.87
28.8076	69.23
28.8177	69.39
28.8279	68.10
28.8381	68.21
28.8482	67.38
28.8584	67.98
28.8685	66.78
28.8787	66.83
28.8889	66.26
28.899	66.13
28.9092	66.15
28.9194	64.98
28.9295	64.63
28.9397	64.76
28.9499	64.13
28.96	64.38
28.9702	63.62
28.9804	62.55
28.9905	62.68
29.0007	62.57
29.0108	62.02
29.021	60.47
29.0312	60.94
29.0413	60.82
29.0515	60.37
29.0617	59.91
29.0718	58.76
29.082	59.04
29.0922	59.10
29.1023	58.71
29.1125	58.05
29.1227	58.30
29.1328	56.45
29.143	57.43
29.1531	55.99
29.1633	55.20
29.1735	55.01
29.1836	55.60
29.1938	55.32
29.204	54.25
29.2141	54.93
29.2243	54.69
29.2345	54.39
29.2446	54.71
29.2548	54.05
29.265	53.11
29.2751	53.04
29.2853	52.29
29.2955	52.82
29.3056	52.52
29.3158	51.74
29.3259	51.53
29.3361	51.93
29.3463	51.55
29.3564	50.94
29.3666	50.98
29.3768	50.87
29.3869	50.41
29.3971	50.73
29.4073	49.76
29.4174	49.61
29.4276	49.91
29.4378	49.21
29.4479	49.66
29.4581	48.89
29.4682	48.95
29.4784	48.44
29.4886	48.76
29.4987	47.50
29.5089	47.49
29.5191	48.41
29.5292	48.14
29.5394	47.57
29.5496	47.34
29.5597	47.66
29.5699	47.49
29.5801	46.87
29.5902	47.00
29.6004	47.11
29.6106	47.20
29.6207	46.76
29.6309	45.61
29.641	46.71
29.6512	46.39
29.6614	45.53
29.6715	45.84
29.6817	45.34
29.6919	45.25
29.702	45.69
29.7122	45.36
29.7224	45.96
29.7325	45.73
29.7427	45.25
29.7529	45.44
29.763	45.18
29.7732	44.94
29.7833	45.09
29.7935	45.38
29.8037	44.56
29.8138	44.66
29.824	44.38
29.8342	44.63
29.8443	44.56
29.8545	43.93
29.8647	44.36
29.8748	43.75
29.885	45.14
29.8952	44.70
29.9053	44.80
29.9155	44.30
29.9257	44.57
29.9358	43.76
29.946	44.37
29.9561	44.18
29.9663	43.74
29.9765	43.48
29.9866	42.80
29.9968	43.78
30.007	43.56
30.0171	42.92
30.0273	43.16
30.0375	43.67
30.0476	42.55
30.0578	43.00
30.068	43.34
30.0781	42.37
30.0883	42.64
30.0984	43.06
30.1086	42.46
30.1188	42.79
30.1289	42.45
30.1391	42.96
30.1493	42.23
30.1594	42.22
30.1696	42.05
30.1798	42.25
30.1899	41.92
30.2001	42.36
30.2103	41.88
30.2204	42.26
30.2306	41.60
30.2408	41.76
30.2509	41.40
30.2611	41.48
30.2712	41.75
30.2814	40.76
30.2916	40.66
30.3017	41.13
30.3119	40.41
30.3221	40.13
30.3322	40.13
30.3424	41.29
30.3526	40.41
30.3627	40.86
30.3729	39.91
30.3831	40.37
30.3932	40.23
30.4034	40.18
30.4135	39.69
30.4237	39.37
30.4339	39.12
30.444	39.45
30.4542	39.45
30.4644	39.55
30.4745	39.02
30.4847	38.90
30.4949	39.50
30.505	38.54
30.5152	38.71
30.5254	38.38
30.5355	38.42
30.5457	38.20
30.5559	38.80
30.566	37.95
30.5762	37.89
30.5863	37.95
30.5965	37.77
30.6067	37.08
30.6168	38.32
30.627	37.59
30.6372	37.60
30.6473	37.84
30.6575	38.10
30.6677	36.95
30.6778	37.42
30.688	37.02
30.6982	36.84
30.7083	36.89
30.7185	37.01
30.7286	37.15
30.7388	37.46
30.749	36.31
30.7591	36.87
30.7693	36.25
30.7795	36.19
30.7896	36.45
30.7998	36.37
30.81	36.31
30.8201	35.98
30.8303	35.98
30.8405	35.65
30.8506	35.72
30.8608	35.35
30.871	35.59
30.8811	36.14
30.8913	36.34
30.9014	34.92
30.9116	35.46
30.9218	36.06
30.9319	34.81
30.9421	35.59
30.9523	35.33
30.9624	34.68
30.9726	35.54
30.9828	35.63
30.9929	35.23
31.0031	35.30
31.0133	35.70
31.0234	35.00
31.0336	34.99
31.0437	34.95
31.0539	34.96
31.0641	34.61
31.0742	35.44
31.0844	34.32
31.0946	34.21
31.1047	35.21
31.1149	34.20
31.1251	34.43
31.1352	35.23
31.1454	34.48
31.1556	34.35
31.1657	34.79
31.1759	33.94
31.186	34.02
31.1962	35.14
31.2064	33.75
31.2165	34.46
31.2267	34.47
31.2369	34.15
31.247	33.78
31.2572	34.49
31.2674	34.12
31.2775	34.00
31.2877	33.85
31.2979	33.94
31.308	34.21
31.3182	33.83
31.3284	33.99
31.3385	33.32
31.3487	34.30
31.3588	33.27
31.369	33.78
31.3792	33.60
31.3893	33.26
31.3995	33.43
31.4097	33.76
31.4198	33.76
31.43	33.26
31.4402	33.81
31.4503	33.64
31.4605	33.37
31.4707	33.84
31.4808	33.14
31.491	33.23
31.5011	33.86
31.5113	33.33
31.5215	33.52
31.5316	33.50
31.5418	33.34
31.552	33.24
31.5621	33.37
31.5723	32.93
31.5825	33.87
31.5926	33.17
31.6028	33.51
31.613	33.17
31.6231	33.44
31.6333	32.97
31.6435	33.46
31.6536	33.68
31.6638	33.41
31.6739	33.18
31.6841	33.96
31.6943	32.99
31.7044	34.28
31.7146	33.96
31.7248	33.06
31.7349	32.66
31.7451	33.11
31.7553	32.71
31.7654	33.31
31.7756	33.47
31.7858	33.53
31.7959	33.39
31.8061	33.71
31.8162	33.26
31.8264	32.68
31.8366	33.13
31.8467	32.64
31.8569	33.76
31.8671	33.32
31.8772	32.65
31.8874	33.34
31.8976	33.00
31.9077	32.88
31.9179	33.05
31.9281	33.28
31.9382	33.68
31.9484	33.63
31.9586	32.70
31.9687	33.66
31.9789	33.01
31.989	33.59
31.9992	32.85
32.0094	33.40
32.0195	33.77
32.0297	33.43
32.0399	33.53
32.05	33.90
32.0602	32.82
32.0704	33.09
32.0805	33.29
32.0907	33.12
32.1009	32.97
32.111	33.34
32.1212	32.77
32.1313	33.72
32.1415	33.86
32.1517	33.46
32.1618	33.19
32.172	33.36
32.1822	33.16
32.1923	33.57
32.2025	33.53
32.2127	34.17
32.2228	33.78
32.233	34.62
32.2432	32.86
32.2533	34.56
32.2635	34.42
32.2737	34.15
32.2838	34.28
32.294	34.61
32.3041	33.71
32.3143	34.13
32.3245	33.58
32.3346	34.05
32.3448	34.38
32.355	34.15
32.3651	33.84
32.3753	33.84
32.3855	34.13
32.3956	33.58
32.4058	33.91
32.416	34.04
32.4261	33.77
32.4363	33.98
32.4464	34.45
32.4566	33.90
32.4668	34.24
32.4769	34.39
32.4871	34.05
32.4973	34.73
32.5074	33.86
32.5176	34.34
32.5278	33.82
32.5379	34.34
32.5481	33.35
32.5583	34.07
32.5684	34.19
32.5786	34.17
32.5888	34.28
32.5989	34.83
32.6091	34.43
32.6192	34.22
32.6294	33.65
32.6396	33.57
32.6497	33.01
32.6599	34.61
32.6701	33.74
32.6802	34.05
32.6904	33.90
32.7006	33.73
32.7107	34.11
32.7209	34.05
32.7311	34.10
32.7412	34.05
32.7514	33.80
32.7615	33.42
32.7717	34.03
32.7819	33.98
32.792	34.37
32.8022	34.08
32.8124	34.07
32.8225	34.30
32.8327	34.29
32.8429	34.62
32.853	33.90
32.8632	34.10
32.8734	34.73
32.8835	34.16
32.8937	34.77
32.9039	33.99
32.914	34.38
32.9242	34.30
32.9343	35.01
32.9445	34.95
32.9547	34.94
32.9648	34.68
32.975	35.28
32.9852	34.38
32.9953	34.96
33.0055	34.69
33.0157	34.88
33.0258	34.64
33.036	34.58
33.0462	34.91
33.0563	34.91
33.0665	34.46
33.0766	35.61
33.0868	34.55
33.097	35.13
33.1071	35.71
33.1173	35.84
33.1275	34.79
33.1376	35.41
33.1478	35.73
33.158	35.31
33.1681	35.54
33.1783	36.10
33.1885	35.29
33.1986	36.42
33.2088	35.69
33.2189	36.03
33.2291	36.07
33.2393	35.87
33.2494	35.73
33.2596	36.63
33.2698	36.29
33.2799	35.84
33.2901	36.98
33.3003	36.53
33.3104	36.20
33.3206	36.51
33.3308	36.41
33.3409	35.88
33.3511	36.25
33.3613	36.47
33.3714	37.16
33.3816	35.96
33.3917	37.03
33.4019	36.22
33.4121	36.63
33.4222	36.08
33.4324	35.55
33.4426	36.74
33.4527	36.44
33.4629	36.51
33.4731	35.84
33.4832	35.95
33.4934	35.56
33.5036	36.37
33.5137	35.54
33.5239	34.99
33.534	35.43
33.5442	35.27
33.5544	35.70
33.5645	35.33
33.5747	35.49
33.5849	35.03
33.595	34.88
33.6052	34.72
33.6154	34.42
33.6255	35.21
33.6357	34.29
33.6459	34.20
33.656	34.55
33.6662	34.32
33.6764	33.99
33.6865	33.90
33.6967	33.32
33.7068	33.34
33.717	33.66
33.7272	32.71
33.7373	33.14
33.7475	33.41
33.7577	32.34
33.7678	32.59
33.778	32.76
33.7882	32.25
33.7983	32.12
33.8085	31.51
33.8187	31.85
33.8288	32.07
33.839	31.45
33.8491	31.55
33.8593	31.03
33.8695	30.88
33.8796	30.85
33.8898	30.99
33.9	30.77
33.9101	30.84
33.9203	30.40
33.9305	30.62
33.9406	30.42
33.9508	29.98
33.961	29.98
33.9711	29.85
33.9813	29.60
33.9915	29.67
34.0016	29.40
34.0118	29.22
34.0219	29.45
34.0321	29.80
34.0423	29.26
34.0524	29.70
34.0626	29.42
34.0728	29.07
34.0829	28.66
34.0931	29.09
34.1033	28.81
34.1134	28.54
34.1236	28.36
34.1338	28.71
34.1439	28.45
34.1541	28.16
34.1642	28.82
34.1744	28.66
34.1846	28.25
34.1947	28.17
34.2049	27.87
34.2151	27.98
34.2252	28.31
34.2354	27.70
34.2456	27.56
34.2557	28.20
34.2659	26.98
34.2761	27.58
34.2862	28.03
34.2964	27.61
34.3066	27.57
34.3167	27.13
34.3269	27.12
34.337	27.72
34.3472	27.13
34.3574	26.91
34.3675	27.86
34.3777	27.46
34.3879	27.04
34.398	26.88
34.4082	27.23
34.4184	27.37
34.4285	27.58
34.4387	27.03
34.4489	27.47
34.459	27.33
34.4692	26.96
34.4793	26.94
34.4895	27.02
34.4997	27.47
34.5098	26.61
34.52	25.94
34.5302	27.16
34.5403	26.75
34.5505	26.63
34.5607	27.05
34.5708	26.92
34.581	26.50
34.5912	26.38
34.6013	27.19
34.6115	27.04
34.6217	26.69
34.6318	26.48
34.642	26.13
34.6521	26.34
34.6623	26.50
34.6725	26.46
34.6826	26.66
34.6928	26.76
34.703	26.37
34.7131	26.09
34.7233	26.21
34.7335	26.56
34.7436	26.16
34.7538	26.70
34.764	26.20
34.7741	26.32
34.7843	26.57
34.7944	26.53
34.8046	25.95
34.8148	25.92
34.8249	26.05
34.8351	26.17
34.8453	26.33
34.8554	26.07
34.8656	25.42
34.8758	26.26
34.8859	25.97
34.8961	25.83
34.9063	26.09
34.9164	26.19
34.9266	26.57
34.9367	26.45
34.9469	26.23
34.9571	26.03
34.9672	26.58
34.9774	25.85
34.9876	26.74
34.9977	25.40
35.0079	25.43
35.0181	26.07
35.0282	25.82
35.0384	26.07
35.0486	25.86
35.0587	26.06
35.0689	25.46
35.0791	25.84
35.0892	25.80
35.0994	25.95
35.1095	26.19
35.1197	25.21
35.1299	25.49
35.14	25.63
35.1502	25.53
35.1604	25.53
35.1705	25.99
35.1807	25.70
35.1909	25.43
35.201	25.26
35.2112	25.42
35.2214	25.67
35.2315	25.80
35.2417	25.36
35.2518	25.10
35.262	25.37
35.2722	25.67
35.2823	25.91
35.2925	25.17
35.3027	25.25
35.3128	24.95
35.323	25.88
35.3332	25.19
35.3433	25.93
35.3535	25.85
35.3637	25.43
35.3738	25.55
35.384	24.81
35.3942	25.11
35.4043	25.42
35.4145	25.81
35.4246	25.23
35.4348	25.18
35.445	25.52
35.4551	24.80
35.4653	25.03
35.4755	25.15
35.4856	25.16
35.4958	25.00
35.506	25.42
35.5161	25.03
35.5263	24.60
35.5365	25.31
35.5466	25.86
35.5568	25.10
35.5669	25.28
35.5771	24.93
35.5873	25.62
35.5974	25.28
35.6076	24.84
35.6178	24.71
35.6279	25.53
35.6381	24.66
35.6483	25.23
35.6584	25.11
35.6686	24.74
35.6788	24.99
35.6889	24.88
35.6991	25.44
35.7093	25.36
35.7194	24.95
35.7296	24.84
35.7397	24.46
35.7499	25.16
35.7601	25.34
35.7702	24.70
35.7804	25.15
35.7906	25.03
35.8007	24.29
35.8109	25.57
35.8211	24.87
35.8312	24.61
35.8414	25.17
35.8516	25.06
35.8617	24.87
35.8719	24.82
35.882	24.88
35.8922	24.80
35.9024	24.83
35.9125	24.51
35.9227	25.07
35.9329	24.78
35.943	25.29
35.9532	25.06
35.9634	24.46
35.9735	24.76
35.9837	24.65
35.9939	24.98
36.004	25.30
36.0142	25.32
36.0244	24.27
36.0345	25.10
36.0447	25.00
36.0548	24.49
36.065	24.80
36.0752	25.25
36.0853	24.94
36.0955	24.75
36.1057	24.55
36.1158	24.95
36.126	24.34
36.1362	24.68
36.1463	24.85
36.1565	24.19
36.1667	24.83
36.1768	24.62
36.187	24.72
36.1971	24.84
36.2073	25.19
36.2175	24.78
36.2276	24.34
36.2378	24.71
36.248	24.43
36.2581	24.70
36.2683	24.48
36.2785	24.63
36.2886	24.45
36.2988	24.43
36.309	24.92
36.3191	24.95
36.3293	24.75
36.3395	24.91
36.3496	24.00
36.3598	24.71
36.3699	25.12
36.3801	24.50
36.3903	24.54
36.4004	24.79
36.4106	24.84
36.4208	24.79
36.4309	24.90
36.4411	24.90
36.4513	24.77
36.4614	24.90
36.4716	24.81
36.4818	24.68
36.4919	24.51
36.5021	24.83
36.5122	24.52
36.5224	24.95
36.5326	25.19
36.5427	25.17
36.5529	25.25
36.5631	25.25
36.5732	25.32
36.5834	24.53
36.5936	24.67
36.6037	24.64
36.6139	24.75
36.6241	25.08
36.6342	25.27
36.6444	24.60
36.6546	25.14
36.6647	25.04
36.6749	24.95
36.685	25.29
36.6952	25.15
36.7054	25.09
36.7155	25.04
36.7257	25.14
36.7359	25.54
36.746	25.87
36.7562	25.30
36.7664	25.35
36.7765	25.24
36.7867	25.34
36.7969	24.98
36.807	25.40
36.8172	25.59
36.8273	25.18
36.8375	25.19
36.8477	24.87
36.8578	24.77
36.868	25.33
36.8782	25.34
36.8883	25.74
36.8985	25.52
36.9087	25.30
36.9188	25.32
36.929	25.00
36.9392	25.42
36.9493	26.01
36.9595	25.23
36.9696	25.09
36.9798	25.97
36.99	25.38
37.0001	25.90
37.0103	25.79
37.0205	26.18
37.0306	25.40
37.0408	26.18
37.051	25.62
37.0611	25.73
37.0713	26.21
37.0815	26.31
37.0916	26.34
37.1018	26.20
37.112	25.52
37.1221	26.35
37.1323	25.91
37.1424	26.17
37.1526	25.89
37.1628	25.89
37.1729	25.87
37.1831	25.80
37.1933	25.83
37.2034	26.32
37.2136	26.06
37.2238	26.22
37.2339	26.37
37.2441	25.68
37.2543	26.49
37.2644	26.06
37.2746	26.27
37.2847	26.36
37.2949	26.37
37.3051	26.78
37.3152	26.03
37.3254	26.14
37.3356	26.77
37.3457	26.58
37.3559	26.50
37.3661	26.96
37.3762	26.87
37.3864	26.26
37.3966	26.78
37.4067	26.38
37.4169	26.48
37.4271	26.55
37.4372	26.35
37.4474	26.91
37.4575	26.86
37.4677	27.44
37.4779	27.09
37.488	27.14
37.4982	27.02
37.5084	26.86
37.5185	26.95
37.5287	26.99
37.5389	27.31
37.549	27.07
37.5592	26.78
37.5694	27.07
37.5795	27.42
37.5897	27.13
37.5998	27.51
37.61	27.51
37.6202	27.29
37.6303	27.27
37.6405	27.83
37.6507	27.79
37.6608	27.48
37.671	27.59
37.6812	27.82
37.6913	27.67
37.7015	27.81
37.7117	27.40
37.7218	27.70
37.732	28.02
37.7422	27.59
37.7523	28.07
37.7625	27.78
37.7726	27.66
37.7828	27.97
37.793	27.59
37.8031	28.00
37.8133	28.50
37.8235	28.30
37.8336	27.75
37.8438	28.20
37.854	28.22
37.8641	27.98
37.8743	28.60
37.8845	28.41
37.8946	28.61
37.9048	28.48
37.9149	29.06
37.9251	28.38
37.9353	28.75
37.9454	28.77
37.9556	29.35
37.9658	28.52
37.9759	28.72
37.9861	28.84
37.9963	29.13
38.0064	29.73
38.0166	29.44
38.0268	29.45
38.0369	28.98
38.0471	29.05
38.0573	29.18
38.0674	29.44
38.0776	29.27
38.0877	29.66
38.0979	30.04
38.1081	29.13
38.1182	29.84
38.1284	29.41
38.1386	30.13
38.1487	29.97
38.1589	30.27
38.1691	30.54
38.1792	30.25
38.1894	30.13
38.1996	30.39
38.2097	30.30
38.2199	30.39
38.23	30.22
38.2402	30.52
38.2504	30.46
38.2605	30.86
38.2707	30.84
38.2809	30.35
38.291	30.86
38.3012	30.95
38.3114	30.86
38.3215	31.07
38.3317	30.71
38.3419	30.94
38.352	31.66
38.3622	30.98
38.3724	31.34
38.3825	31.25
38.3927	31.01
38.4028	31.29
38.413	31.09
38.4232	31.16
38.4333	31.27
38.4435	31.40
38.4537	31.36
38.4638	31.49
38.474	32.04
38.4842	30.93
38.4943	32.04
38.5045	31.37
38.5147	31.55
38.5248	31.86
38.535	31.82
38.5451	31.65
38.5553	31.34
38.5655	31.87
38.5756	31.98
38.5858	31.51
38.596	31.47
38.6061	31.32
38.6163	32.36
38.6265	31.49
38.6366	31.81
38.6468	31.25
38.657	31.27
38.6671	31.76
38.6773	31.79
38.6875	31.73
38.6976	31.95
38.7078	31.70
38.7179	31.38
38.7281	31.88
38.7383	31.53
38.7484	31.42
38.7586	31.82
38.7688	31.15
38.7789	30.87
38.7891	31.79
38.7993	31.21
38.8094	31.59
38.8196	30.96
38.8298	32.12
38.8399	31.02
38.8501	31.06
38.8602	30.93
38.8704	31.59
38.8806	31.38
38.8907	30.82
38.9009	31.19
38.9111	31.59
38.9212	31.14
38.9314	31.26
38.9416	31.10
38.9517	30.99
38.9619	31.13
38.9721	31.16
38.9822	30.50
38.9924	31.14
39.0025	31.02
39.0127	30.87
39.0229	30.35
39.033	30.68
39.0432	30.55
39.0534	30.49
39.0635	30.47
39.0737	30.07
39.0839	30.95
39.094	30.55
39.1042	30.24
39.1144	29.53
39.1245	30.23
39.1347	29.47
39.1449	29.81
39.155	30.13
39.1652	29.92
39.1753	29.38
39.1855	29.58
39.1957	30.08
39.2058	29.57
39.216	29.15
39.2262	29.84
39.2363	29.27
39.2465	29.87
39.2567	28.93
39.2668	29.39
39.277	29.17
39.2872	29.28
39.2973	29.43
39.3075	29.16
39.3176	29.20
39.3278	28.60
39.338	28.39
39.3481	28.66
39.3583	28.71
39.3685	28.52
39.3786	28.66
39.3888	28.41
39.399	28.68
39.4091	28.47
39.4193	28.53
39.4295	28.94
39.4396	28.13
39.4498	27.94
39.46	28.14
39.4701	28.71
39.4803	28.12
39.4904	28.02
39.5006	27.98
39.5108	28.27
39.5209	27.80
39.5311	27.49
39.5413	27.41
39.5514	27.79
39.5616	27.68
39.5718	27.54
39.5819	26.88
39.5921	27.10
39.6023	27.09
39.6124	27.58
39.6226	27.36
39.6327	27.29
39.6429	27.10
39.6531	27.29
39.6632	26.93
39.6734	26.91
39.6836	26.81
39.6937	26.90
39.7039	27.07
39.7141	26.85
39.7242	26.68
39.7344	27.22
39.7446	26.94
39.7547	26.80
39.7649	27.20
39.7751	26.74
39.7852	26.75
39.7954	26.45
39.8055	26.59
39.8157	26.41
39.8259	25.56
39.836	26.65
39.8462	26.28
39.8564	26.22
39.8665	26.63
39.8767	26.39
39.8869	25.99
39.897	26.16
39.9072	26.10
39.9174	26.12
39.9275	26.40
39.9377	26.66
39.9478	26.46
39.958	26.15
39.9682	26.70
39.9783	25.77
39.9885	26.18
39.9987	25.44
