5.0023	49.66
5.0125	49.87
5.0226	48.86
5.0328	47.78
5.043	47.93
5.0531	46.36
5.0633	45.54
5.0735	45.61
5.0836	45.18
5.0938	44.82
5.1039	44.20
5.1141	44.27
5.1243	42.98
5.1344	41.75
5.1446	42.43
5.1548	41.77
5.1649	40.72
5.1751	40.00
5.1853	40.33
5.1954	39.60
5.2056	40.02
5.2158	39.13
5.2259	38.24
5.2361	37.93
5.2462	38.23
5.2564	37.91
5.2666	36.64
5.2767	36.79
5.2869	35.54
5.2971	35.29
5.3072	35.03
5.3174	34.99
5.3276	35.02
5.3377	34.18
5.3479	33.71
5.3581	34.68
5.3682	33.14
5.3784	33.74
5.3886	33.07
5.3987	32.51
5.4089	33.10
5.419	32.00
5.4292	30.90
5.4394	30.41
5.4495	31.37
5.4597	30.81
5.4699	31.11
5.48	30.64
5.4902	30.25
5.5004	30.20
5.5105	29.35
5.5207	29.83
5.5309	29.05
5.541	30.22
5.5512	28.57
5.5613	29.07
5.5715	27.78
5.5817	28.03
5.5918	28.62
5.602	27.85
5.6122	27.26
5.6223	27.77
5.6325	26.74
5.6427	26.77
5.6528	26.98
5.663	26.62
5.6732	26.02
5.6833	27.18
5.6935	25.71
5.7036	25.74
5.7138	26.68
5.724	27.24
5.7341	25.91
5.7443	26.34
5.7545	26.84
5.7646	25.01
5.7748	25.04
5.785	25.44
5.7951	24.88
5.8053	25.60
5.8155	25.36
5.8256	24.73
5.8358	25.20
5.846	25.64
5.8561	25.24
5.8663	25.04
5.8764	25.27
5.8866	24.89
5.8968	24.90
5.9069	25.03
5.9171	24.99
5.9273	24.76
5.9374	24.56
5.9476	24.46
5.9578	24.41
5.9679	25.55
5.9781	24.24
5.9883	24.69
5.9984	24.95
6.0086	25.12
6.0187	24.30
6.0289	24.87
6.0391	24.78
6.0492	25.05
6.0594	24.51
6.0696	24.70
6.0797	24.98
6.0899	24.76
6.1001	24.40
6.1102	24.12
6.1204	24.34
6.1306	24.07
6.1407	23.88
6.1509	24.46
6.1611	23.49
6.1712	23.95
6.1814	24.68
6.1915	24.10
6.2017	24.59
6.2119	25.15
6.222	24.02
6.2322	24.43
6.2424	25.34
6.2525	24.12
6.2627	24.09
6.2729	24.46
6.283	24.02
6.2932	23.81
6.3034	24.96
6.3135	24.70
6.3237	24.44
6.3338	23.95
6.344	23.98
6.3542	24.74
6.3643	23.25
6.3745	24.71
6.3847	24.29
6.3948	24.40
6.405	23.46
6.4152	24.23
6.4253	24.59
6.4355	24.70
6.4457	24.30
6.4558	23.79
6.466	24.13
6.4762	24.60
6.4863	25.29
6.4965	24.24
6.5066	24.68
6.5168	23.87
6.527	24.14
6.5371	23.07
6.5473	24.29
6.5575	23.74
6.5676	24.41
6.5778	23.76
6.588	24.95
6.5981	25.18
6.6083	24.10
6.6185	24.98
6.6286	24.46
6.6388	24.29
6.6489	24.88
6.6591	24.36
6.6693	25.04
6.6794	24.06
6.6896	24.38
6.6998	24.21
6.7099	24.59
6.7201	24.57
6.7303	24.89
6.7404	25.12
6.7506	25.82
6.7608	25.19
6.7709	25.22
6.7811	24.23
6.7913	24.82
6.8014	25.22
6.8116	23.48
6.8217	25.36
6.8319	25.09
6.8421	25.10
6.8522	24.85
6.8624	24.54
6.8726	24.45
6.8827	24.77
6.8929	24.96
6.9031	25.14
6.9132	25.03
6.9234	24.70
6.9336	25.18
6.9437	24.40
6.9539	24.34
6.964	25.74
6.9742	25.18
6.9844	25.09
6.9945	25.22
7.0047	25.33
7.0149	24.32
7.025	25.30
7.0352	25.00
7.0454	24.58
7.0555	24.70
7.0657	25.19
7.0759	24.99
7.086	24.78
7.0962	24.82
7.1064	25.19
7.1165	25.27
7.1267	25.55
7.1368	25.66
7.147	24.96
7.1572	25.74
7.1673	25.80
7.1775	25.75
7.1877	25.71
7.1978	24.95
7.208	25.80
7.2182	25.88
7.2283	25.01
7.2385	25.43
7.2487	26.05
7.2588	26.17
7.269	25.62
7.2791	25.30
7.2893	26.17
7.2995	25.77
7.3096	25.99
7.3198	25.74
7.33	26.07
7.3401	25.56
7.3503	25.88
7.3605	26.45
7.3706	25.25
7.3808	25.38
7.391	25.72
7.4011	25.55
7.4113	25.93
7.4215	26.71
7.4316	26.38
7.4418	26.20
7.4519	26.32
7.4621	26.25
7.4723	25.59
7.4824	26.14
7.4926	26.66
7.5028	26.02
7.5129	26.68
7.5231	26.41
7.5333	27.00
7.5434	26.37
7.5536	27.04
7.5638	25.96
7.5739	27.02
7.5841	26.59
7.5942	26.58
7.6044	25.93
7.6146	27.03
7.6247	26.64
7.6349	26.75
7.6451	27.70
7.6552	27.02
7.6654	26.97
7.6756	26.51
7.6857	26.59
7.6959	26.43
7.7061	26.45
7.7162	27.30
7.7264	26.16
7.7365	26.65
7.7467	26.77
7.7569	26.52
7.767	26.88
7.7772	27.35
7.7874	26.54
7.7975	27.33
7.8077	27.97
7.8179	27.04
7.828	27.16
7.8382	27.19
7.8484	26.77
7.8585	27.74
7.8687	27.35
7.8789	27.37
7.889	27.32
7.8992	27.65
7.9093	27.63
7.9195	27.41
7.9297	27.34
7.9398	28.26
7.95	27.35
7.9602	27.69
7.9703	27.77
7.9805	27.76
7.9907	27.91
8.0008	27.80
8.011	27.66
8.0212	28.15
8.0313	26.78
8.0415	28.94
8.0516	27.99
8.0618	27.70
8.072	28.38
8.0821	28.32
8.0923	27.42
8.1025	27.01
8.1126	28.15
8.1228	28.21
8.133	28.06
8.1431	28.38
8.1533	28.29
8.1635	28.35
8.1736	27.70
8.1838	27.59
8.194	27.45
8.2041	28.77
8.2143	28.01
8.2244	27.61
8.2346	28.60
8.2448	27.98
8.2549	28.25
8.2651	28.35
8.2753	27.74
8.2854	28.27
8.2956	28.13
8.3058	28.51
8.3159	28.76
8.3261	28.34
8.3363	28.11
8.3464	28.76
8.3566	28.60
8.3667	27.72
8.3769	28.65
8.3871	28.71
8.3972	28.31
8.4074	28.28
8.4176	28.62
8.4277	28.70
8.4379	28.51
8.4481	28.20
8.4582	28.16
8.4684	28.98
8.4786	28.76
8.4887	29.35
8.4989	29.44
8.5091	29.27
8.5192	28.73
8.5294	29.20
8.5395	29.53
8.5497	28.54
8.5599	29.43
8.57	29.25
8.5802	28.99
8.5904	29.09
8.6005	29.04
8.6107	29.76
8.6209	28.35
8.631	28.80
8.6412	29.44
8.6514	29.84
8.6615	29.32
8.6717	30.34
8.6818	29.77
8.692	29.54
8.7022	29.04
8.7123	30.09
8.7225	30.26
8.7327	29.97
8.7428	29.65
8.753	29.76
8.7632	30.24
8.7733	30.53
8.7835	30.12
8.7937	29.71
8.8038	29.52
8.814	29.78
8.8242	29.22
8.8343	30.17
8.8445	29.62
8.8546	29.53
8.8648	29.98
8.875	29.18
8.8851	29.56
8.8953	30.26
8.9055	31.20
8.9156	29.45
8.9258	30.37
8.936	30.00
8.9461	30.32
8.9563	29.87
8.9665	30.93
8.9766	29.81
8.9868	30.40
8.9969	30.83
9.0071	29.73
9.0173	31.23
9.0274	31.32
9.0376	30.74
9.0478	30.84
9.0579	30.18
9.0681	30.30
9.0783	30.73
9.0884	30.53
9.0986	30.21
9.1088	31.32
9.1189	31.71
9.1291	30.81
9.1393	31.36
9.1494	31.90
9.1596	30.20
9.1697	30.65
9.1799	32.23
9.1901	30.29
9.2002	31.08
9.2104	31.65
9.2206	30.13
9.2307	31.41
9.2409	30.76
9.2511	30.03
9.2612	31.20
9.2714	30.85
9.2816	31.75
9.2917	31.00
9.3019	31.32
9.312	30.59
9.3222	31.64
9.3324	31.59
9.3425	30.70
9.3527	30.87
9.3629	31.56
9.373	30.04
9.3832	32.05
9.3934	31.31
9.4035	31.27
9.4137	31.16
9.4239	31.64
9.434	31.51
9.4442	31.45
9.4544	32.80
9.4645	31.67
9.4747	32.04
9.4848	31.60
9.495	31.67
9.5052	31.80
9.5153	30.83
9.5255	31.68
9.5357	31.82
9.5458	32.10
9.556	31.53
9.5662	32.17
9.5763	31.65
9.5865	32.61
9.5967	32.48
9.6068	31.77
9.617	31.82
9.6271	31.70
9.6373	32.05
9.6475	31.70
9.6576	32.25
9.6678	32.79
9.678	31.98
9.6881	31.96
9.6983	31.51
9.7085	31.61
9.7186	32.43
9.7288	31.73
9.739	32.23
9.7491	32.53
9.7593	31.92
9.7694	32.24
9.7796	33.28
9.7898	32.28
9.7999	32.28
9.8101	32.93
9.8203	31.98
9.8304	31.91
9.8406	33.52
9.8508	32.07
9.8609	31.29
9.8711	32.72
9.8813	32.16
9.8914	32.45
9.9016	33.48
9.9118	33.61
9.9219	32.73
9.9321	33.02
9.9422	33.66
9.9524	32.75
9.9626	33.35
9.9727	32.64
9.9829	32.91
9.9931	32.18
10.0032	32.40
10.0134	33.02
10.0236	32.57
10.0337	31.95
10.0439	33.51
10.0541	33.55
10.0642	33.34
10.0744	33.84
10.0845	33.52
10.0947	34.07
10.1049	33.01
10.115	34.20
10.1252	33.12
10.1354	33.81
10.1455	33.95
10.1557	33.59
10.1659	33.07
10.176	34.51
10.1862	33.58
10.1964	33.51
10.2065	34.18
10.2167	33.91
10.2269	33.29
10.237	34.09
10.2472	33.72
10.2573	33.55
10.2675	33.26
10.2777	33.50
10.2878	34.04
10.298	33.52
10.3082	33.79
10.3183	34.45
10.3285	34.50
10.3387	33.75
10.3488	33.45
10.359	33.55
10.3692	33.52
10.3793	33.40
10.3895	33.20
10.3996	34.23
10.4098	33.97
10.42	34.96
10.4301	33.38
10.4403	33.75
10.4505	35.37
10.4606	34.10
10.4708	34.73
10.481	34.16
10.4911	33.79
10.5013	33.83
10.5115	34.30
10.5216	34.75
10.5318	34.57
10.542	34.29
10.5521	34.99
10.5623	34.90
10.5724	34.58
10.5826	35.18
10.5928	34.80
10.6029	34.69
10.6131	34.43
10.6233	35.43
10.6334	34.57
10.6436	35.60
10.6538	34.48
10.6639	34.43
10.6741	34.07
10.6843	35.85
10.6944	34.99
10.7046	34.69
10.7147	35.56
10.7249	35.31
10.7351	34.46
10.7452	34.87
10.7554	35.00
10.7656	35.52
10.7757	34.08
10.7859	34.88
10.7961	34.93
10.8062	35.19
10.8164	35.82
10.8266	35.51
10.8367	36.41
10.8469	36.22
10.8571	36.18
10.8672	35.62
10.8774	36.07
10.8875	35.05
10.8977	34.78
10.9079	35.90
10.918	35.00
10.9282	35.75
10.9384	36.41
10.9485	35.40
10.9587	36.21
10.9689	35.59
10.979	36.21
10.9892	36.71
10.9994	35.88
11.0095	36.53
11.0197	35.46
11.0298	36.94
11.04	35.64
11.0502	35.21
11.0603	35.95
11.0705	36.29
11.0807	35.90
11.0908	36.38
11.101	36.42
11.1112	36.51
11.1213	36.64
11.1315	36.31
11.1417	35.99
11.1518	36.75
11.162	36.62
11.1722	36.90
11.1823	36.70
11.1925	36.26
11.2026	37.37
11.2128	36.91
11.223	36.31
11.2331	36.77
11.2433	37.18
11.2535	35.73
11.2636	36.66
11.2738	37.43
11.284	36.23
11.2941	37.29
11.3043	37.51
11.3145	36.25
11.3246	37.94
11.3348	37.45
11.3449	37.70
11.3551	36.88
11.3653	36.17
11.3754	36.71
11.3856	37.71
11.3958	37.20
11.4059	37.04
11.4161	37.52
11.4263	38.01
11.4364	37.49
11.4466	37.26
11.4568	37.84
11.4669	38.43
11.4771	38.98
11.4873	39.05
11.4974	37.85
11.5076	38.49
11.5177	37.19
11.5279	37.83
11.5381	38.18
11.5482	37.73
11.5584	37.49
11.5686	38.56
11.5787	38.27
11.5889	37.45
11.5991	37.84
11.6092	37.99
11.6194	38.00
11.6296	38.52
11.6397	38.68
11.6499	38.28
11.66	38.97
11.6702	37.34
11.6804	39.05
11.6905	38.34
11.7007	38.07
11.7109	38.01
11.721	38.35
11.7312	38.71
11.7414	38.57
11.7515	38.57
11.7617	37.75
11.7719	39.43
11.782	38.04
11.7922	38.49
11.8023	39.78
11.8125	38.95
11.8227	39.75
11.8328	38.96
11.843	39.60
11.8532	38.25
11.8633	39.41
11.8735	39.01
11.8837	39.59
11.8938	38.75
11.904	39.63
11.9142	39.41
11.9243	39.30
11.9345	39.52
11.9447	39.43
11.9548	39.45
11.965	39.30
11.9751	38.54
11.9853	40.91
11.9955	40.85
12.0056	39.51
12.0158	40.10
12.026	39.62
12.0361	39.51
12.0463	39.35
12.0565	40.60
12.0666	39.88
12.0768	39.49
12.087	41.12
12.0971	40.47
12.1073	40.49
12.1174	40.76
12.1276	41.19
12.1378	41.70
12.1479	41.18
12.1581	40.60
12.1683	40.79
12.1784	41.24
12.1886	40.30
12.1988	40.99
12.2089	41.11
12.2191	40.75
12.2293	40.76
12.2394	41.35
12.2496	40.77
12.2598	41.29
12.2699	40.94
12.2801	41.54
12.2902	42.47
12.3004	41.70
12.3106	41.76
12.3207	42.17
12.3309	42.30
12.3411	41.62
12.3512	41.36
12.3614	41.22
12.3716	42.20
12.3817	41.59
12.3919	41.88
12.4021	41.82
12.4122	40.16
12.4224	42.09
12.4325	42.71
12.4427	41.93
12.4529	42.75
12.463	41.77
12.4732	41.98
12.4834	42.76
12.4935	43.16
12.5037	42.54
12.5139	42.54
12.524	43.51
12.5342	43.32
12.5444	43.23
12.5545	43.65
12.5647	43.91
12.5749	42.91
12.585	42.49
12.5952	42.67
12.6053	44.68
12.6155	43.84
12.6257	43.45
12.6358	44.77
12.646	42.71
12.6562	43.70
12.6663	44.02
12.6765	43.41
12.6867	43.95
12.6968	43.51
12.707	43.77
12.7172	43.51
12.7273	44.04
12.7375	44.43
12.7476	44.76
12.7578	44.25
12.768	44.32
12.7781	44.98
12.7883	44.59
12.7985	44.71
12.8086	44.70
12.8188	44.57
12.829	44.11
12.8391	44.31
12.8493	44.40
12.8595	45.21
12.8696	45.81
12.8798	45.14
12.89	45.71
12.9001	45.46
12.9103	45.94
12.9204	45.29
12.9306	45.71
12.9408	45.44
12.9509	45.90
12.9611	44.74
12.9713	46.37
12.9814	46.49
12.9916	45.46
13.0018	46.12
13.0119	46.62
13.0221	46.42
13.0323	46.03
13.0424	46.10
13.0526	46.48
13.0627	45.29
13.0729	46.25
13.0831	47.40
13.0932	46.81
13.1034	47.73
13.1136	47.40
13.1237	47.00
13.1339	47.56
13.1441	47.69
13.1542	46.71
13.1644	46.34
13.1746	47.07
13.1847	46.69
13.1949	48.93
13.2051	47.28
13.2152	48.42
13.2254	48.30
13.2355	48.07
13.2457	47.60
13.2559	46.99
13.266	48.25
13.2762	47.74
13.2864	47.80
13.2965	48.07
13.3067	48.09
13.3169	49.79
13.327	49.82
13.3372	48.51
13.3474	48.30
13.3575	49.40
13.3677	48.09
13.3778	49.78
13.388	49.45
13.3982	49.45
13.4083	49.32
13.4185	48.49
13.4287	49.15
13.4388	49.80
13.449	49.37
13.4592	50.10
13.4693	49.48
13.4795	49.26
13.4897	49.55
13.4998	49.59
13.51	50.33
13.5201	50.76
13.5303	49.77
13.5405	50.04
13.5506	49.90
13.5608	50.77
13.571	50.50
13.5811	50.82
13.5913	49.62
13.6015	51.02
13.6116	51.43
13.6218	51.66
13.632	51.90
13.6421	51.32
13.6523	51.47
13.6625	50.76
13.6726	52.20
13.6828	51.01
13.6929	51.05
13.7031	52.23
13.7133	53.58
13.7234	52.34
13.7336	52.17
13.7438	52.15
13.7539	52.25
13.7641	53.12
13.7743	51.96
13.7844	52.74
13.7946	52.10
13.8048	53.15
13.8149	52.76
13.8251	53.12
13.8352	51.23
13.8454	53.10
13.8556	53.66
13.8657	53.45
13.8759	52.98
13.8861	53.98
13.8962	53.83
13.9064	53.41
13.9166	54.02
13.9267	54.48
13.9369	54.16
13.9471	54.46
13.9572	54.55
13.9674	54.74
13.9776	55.07
13.9877	54.93
13.9979	55.01
14.008	55.09
14.0182	54.36
14.0284	54.65
14.0385	56.70
14.0487	55.92
14.0589	55.21
14.069	55.73
14.0792	55.85
14.0894	55.48
14.0995	55.79
14.1097	55.95
14.1199	56.07
14.13	55.79
14.1402	56.57
14.1503	57.20
14.1605	55.49
14.1707	57.99
14.1808	56.08
14.191	57.95
14.2012	55.91
14.2113	57.09
14.2215	56.87
14.2317	57.79
14.2418	57.20
14.252	58.49
14.2622	57.52
14.2723	57.79
14.2825	58.37
14.2927	58.31
14.3028	58.69
14.313	59.06
14.3231	58.01
14.3333	59.01
14.3435	58.40
14.3536	58.53
14.3638	58.88
14.374	58.90
14.3841	58.79
14.3943	59.37
14.4045	58.99
14.4146	60.70
14.4248	58.63
14.435	60.49
14.4451	58.77
14.4553	61.24
14.4654	60.32
14.4756	59.65
14.4858	61.07
14.4959	60.98
14.5061	61.37
14.5163	61.30
14.5264	61.77
14.5366	60.98
14.5468	60.68
14.5569	62.04
14.5671	63.07
14.5773	61.18
14.5874	62.79
14.5976	62.05
14.6078	62.84
14.6179	62.99
14.6281	62.56
14.6382	62.93
14.6484	63.30
14.6586	64.21
14.6687	62.27
14.6789	63.20
14.6891	62.55
14.6992	62.74
14.7094	63.46
14.7196	61.85
14.7297	63.57
14.7399	64.35
14.7501	62.22
14.7602	64.61
14.7704	64.07
14.7805	63.91
14.7907	63.76
14.8009	65.21
14.811	64.66
14.8212	64.75
14.8314	65.18
14.8415	64.71
14.8517	64.18
14.8619	65.90
14.872	65.80
14.8822	65.43
14.8924	67.00
14.9025	66.62
14.9127	65.97
14.9229	67.26
14.933	66.87
14.9432	65.23
14.9533	65.94
14.9635	66.77
14.9737	67.74
14.9838	66.69
14.994	68.13
15.0042	68.59
15.0143	68.67
15.0245	68.29
15.0347	67.93
15.0448	67.51
15.055	68.90
15.0652	67.99
15.0753	67.72
15.0855	68.71
15.0956	69.71
15.1058	69.09
15.116	70.12
15.1261	69.80
15.1363	69.79
15.1465	67.99
15.1566	69.71
15.1668	70.38
15.177	68.71
15.1871	70.15
15.1973	69.91
15.2075	71.13
15.2176	70.62
15.2278	70.59
15.238	70.74
15.2481	70.19
15.2583	71.64
15.2684	71.60
15.2786	71.84
15.2888	71.93
15.2989	72.07
15.3091	72.61
15.3193	70.93
15.3294	71.29
15.3396	71.10
15.3498	74.30
15.3599	72.53
15.3701	71.43
15.3803	73.00
15.3904	73.94
15.4006	72.87
15.4107	73.34
15.4209	73.75
15.4311	73.90
15.4412	73.81
15.4514	75.38
15.4616	73.49
15.4717	74.92
15.4819	74.13
15.4921	75.53
15.5022	75.35
15.5124	75.52
15.5226	75.04
15.5327	75.37
15.5429	76.07
15.553	76.46
15.5632	76.57
15.5734	75.15
15.5835	76.83
15.5937	76.48
15.6039	76.23
15.614	76.32
15.6242	78.39
15.6344	78.20
15.6445	77.96
15.6547	77.91
15.6649	76.60
15.675	78.60
15.6852	78.99
15.6954	79.63
15.7055	78.98
15.7157	78.70
15.7258	79.04
15.736	80.38
15.7462	80.18
15.7563	78.45
15.7665	81.57
15.7767	80.67
15.7868	78.87
15.797	81.12
15.8072	81.88
15.8173	79.71
15.8275	80.59
15.8377	81.87
15.8478	82.24
15.858	81.09
15.8681	82.42
15.8783	80.93
15.8885	82.54
15.8986	82.12
15.9088	81.21
15.919	81.87
15.9291	83.80
15.9393	83.76
15.9495	83.15
15.9596	82.29
15.9698	83.49
15.98	83.96
15.9901	84.82
16.0003	84.32
16.0105	84.52
16.0206	85.15
16.0308	85.57
16.0409	84.73
16.0511	85.47
16.0613	85.63
16.0714	84.98
16.0816	86.51
16.0918	87.26
16.1019	86.40
16.1121	86.62
16.1223	87.25
16.1324	87.38
16.1426	85.83
16.1528	86.32
16.1629	85.91
16.1731	88.60
16.1832	88.60
16.1934	87.84
16.2036	87.61
16.2137	88.71
16.2239	89.38
16.2341	88.54
16.2442	87.88
16.2544	89.61
16.2646	90.09
16.2747	89.90
16.2849	91.05
16.2951	90.57
16.3052	90.98
16.3154	89.94
16.3256	90.38
16.3357	90.82
16.3459	90.58
16.356	92.37
16.3662	91.99
16.3764	91.38
16.3865	92.95
16.3967	93.83
16.4069	91.91
16.417	93.12
16.4272	93.72
16.4374	91.77
16.4475	93.15
16.4577	93.54
16.4679	93.33
16.478	94.12
16.4882	94.71
16.4983	95.24
16.5085	95.09
16.5187	93.70
16.5288	94.98
16.539	95.92
16.5492	94.80
16.5593	96.02
16.5695	98.28
16.5797	96.98
16.5898	95.60
16.6	97.20
16.6102	96.49
16.6203	96.84
16.6305	97.40
16.6407	97.70
16.6508	96.71
16.661	98.69
16.6711	98.19
16.6813	98.85
16.6915	100.07
16.7016	99.52
16.7118	98.97
16.722	100.79
16.7321	100.89
16.7423	100.05
16.7525	99.35
16.7626	102.37
16.7728	99.99
16.783	103.09
16.7931	101.26
16.8033	101.75
16.8134	102.37
16.8236	102.07
16.8338	102.07
16.8439	104.04
16.8541	102.13
16.8643	102.03
16.8744	102.09
16.8846	101.12
16.8948	103.73
16.9049	105.41
16.9151	103.91
16.9253	103.80
16.9354	105.34
16.9456	104.98
16.9558	103.89
16.9659	105.77
16.9761	104.90
16.9862	105.93
16.9964	105.90
17.0066	104.85
17.0167	104.46
17.0269	106.84
17.0371	105.28
17.0472	104.77
17.0574	107.53
17.0676	106.70
17.0777	105.96
17.0879	107.66
17.0981	107.60
17.1082	107.20
17.1184	108.73
17.1285	109.05
17.1387	107.93
17.1489	107.66
17.159	107.76
17.1692	108.90
17.1794	111.31
17.1895	109.87
17.1997	109.85
17.2099	111.79
17.22	109.52
17.2302	109.90
17.2404	112.95
17.2505	110.00
17.2607	111.26
17.2709	111.41
17.281	112.32
17.2912	112.72
17.3013	112.25
17.3115	112.65
17.3217	113.10
17.3318	115.03
17.342	114.49
17.3522	113.07
17.3623	113.61
17.3725	112.98
17.3827	112.30
17.3928	113.44
17.403	113.15
17.4132	115.99
17.4233	115.04
17.4335	113.24
17.4436	115.63
17.4538	116.74
17.464	116.93
17.4741	115.20
17.4843	116.37
17.4945	116.35
17.5046	117.14
17.5148	118.26
17.525	115.82
17.5351	116.96
17.5453	118.59
17.5555	119.74
17.5656	120.16
17.5758	119.49
17.5859	120.82
17.5961	119.37
17.6063	120.31
17.6164	121.16
17.6266	122.19
17.6368	122.46
17.6469	121.55
17.6571	121.32
17.6673	123.73
17.6774	123.00
17.6876	124.63
17.6978	124.24
17.7079	125.26
17.7181	125.53
17.7283	125.92
17.7384	125.23
17.7486	126.42
17.7587	126.67
17.7689	127.57
17.7791	126.55
17.7892	129.16
17.7994	129.92
17.8096	128.68
17.8197	130.35
17.8299	131.43
17.8401	131.53
17.8502	131.75
17.8604	132.20
17.8706	134.76
17.8807	134.95
17.8909	135.60
17.901	134.57
17.9112	136.11
17.9214	136.23
17.9315	137.51
17.9417	139.20
17.9519	137.45
17.962	139.77
17.9722	142.37
17.9824	142.33
17.9925	143.27
18.0027	145.27
18.0129	143.77
18.023	145.66
18.0332	147.24
18.0434	147.18
18.0535	148.68
18.0637	149.13
18.0738	151.12
18.084	150.24
18.0942	154.17
18.1043	154.13
18.1145	155.04
18.1247	158.99
18.1348	156.82
18.145	158.48
18.1552	162.72
18.1653	163.34
18.1755	162.34
18.1857	166.13
18.1958	167.22
18.206	168.10
18.2161	172.05
18.2263	170.23
18.2365	171.10
18.2466	175.13
18.2568	177.59
18.267	176.52
18.2771	182.76
18.2873	181.99
18.2975	184.32
18.3076	188.37
18.3178	186.67
18.328	190.29
18.3381	192.41
18.3483	192.47
18.3585	195.71
18.3686	200.44
18.3788	200.21
18.3889	200.95
18.3991	205.46
18.4093	209.10
18.4194	210.10
18.4296	213.20
18.4398	217.11
18.4499	218.52
18.4601	216.78
18.4703	219.52
18.4804	223.37
18.4906	225.91
18.5008	226.87
18.5109	226.25
18.5211	232.73
18.5312	232.20
18.5414	232.27
18.5516	232.53
18.5617	238.00
18.5719	237.19
18.5821	239.13
18.5922	241.16
18.6024	239.89
18.6126	244.21
18.6227	242.79
18.6329	241.05
18.6431	244.05
18.6532	245.92
18.6634	243.66
18.6736	243.22
18.6837	243.54
18.6939	244.82
18.704	243.46
18.7142	243.65
18.7244	239.15
18.7345	239.03
18.7447	240.29
18.7549	236.43
18.765	236.60
18.7752	233.27
18.7854	230.67
18.7955	231.80
18.8057	230.37
18.8159	226.01
18.826	226.20
18.8362	225.30
18.8463	220.27
18.8565	219.55
18.8667	218.12
18.8768	213.96
18.887	214.02
18.8972	213.37
18.9073	209.19
18.9175	209.63
18.9277	204.79
18.9378	202.70
18.948	199.39
18.9582	198.48
18.9683	194.11
18.9785	193.71
18.9887	194.50
18.9988	190.49
19.009	189.23
19.0191	188.16
19.0293	185.11
19.0395	183.75
19.0496	182.92
19.0598	179.52
19.07	178.50
19.0801	177.14
19.0903	173.97
19.1005	172.63
19.1106	172.95
19.1208	170.23
19.131	169.75
19.1411	170.02
19.1513	166.15
19.1614	165.16
19.1716	163.53
19.1818	161.77
19.1919	159.67
19.2021	161.00
19.2123	157.32
19.2224	157.01
19.2326	156.40
19.2428	155.05
19.2529	155.37
19.2631	151.66
19.2733	152.52
19.2834	153.16
19.2936	152.32
19.3038	151.19
19.3139	150.35
19.3241	148.52
19.3342	147.76
19.3444	148.23
19.3546	147.74
19.3647	146.52
19.3749	146.02
19.3851	145.63
19.3952	143.36
19.4054	145.03
19.4156	143.51
19.4257	143.58
19.4359	141.27
19.4461	141.27
19.4562	140.70
19.4664	140.65
19.4765	142.25
19.4867	138.06
19.4969	139.56
19.507	139.02
19.5172	137.82
19.5274	137.29
19.5375	137.84
19.5477	136.68
19.5579	136.82
19.568	137.06
19.5782	136.79
19.5884	138.71
19.5985	135.77
19.6087	136.85
19.6188	134.99
19.629	136.54
19.6392	132.86
19.6493	135.97
19.6595	133.16
19.6697	134.55
19.6798	136.24
19.69	133.45
19.7002	132.73
19.7103	134.10
19.7205	133.62
19.7307	133.68
19.7408	132.45
19.751	134.54
19.7612	132.66
19.7713	132.26
19.7815	133.79
19.7916	130.87
19.8018	132.12
19.812	132.85
19.8221	130.85
19.8323	133.67
19.8425	132.72
19.8526	133.24
19.8628	132.45
19.873	131.16
19.8831	132.13
19.8933	132.33
19.9035	130.81
19.9136	130.15
19.9238	131.26
19.9339	131.44
19.9441	131.68
19.9543	131.90
19.9644	131.65
19.9746	131.45
19.9848	132.46
19.9949	134.58
20.0051	132.21
20.0153	132.66
20.0254	131.28
20.0356	130.87
20.0458	132.79
20.0559	133.18
20.0661	132.52
20.0763	132.54
20.0864	131.04
20.0966	132.32
20.1067	131.85
20.1169	134.09
20.1271	131.70
20.1372	132.95
20.1474	133.67
20.1576	132.93
20.1677	133.53
20.1779	134.04
20.1881	133.30
20.1982	134.05
20.2084	135.00
20.2186	133.29
20.2287	134.72
20.2389	135.63
20.249	134.52
20.2592	134.78
20.2694	136.21
20.2795	133.23
20.2897	135.95
20.2999	136.29
20.31	135.65
20.3202	136.68
20.3304	137.80
20.3405	135.04
20.3507	136.71
20.3609	136.79
20.371	134.60
20.3812	137.65
20.3914	138.60
20.4015	136.33
20.4117	138.62
20.4218	139.05
20.432	136.85
20.4422	138.05
20.4523	138.77
20.4625	137.85
20.4727	139.93
20.4828	139.84
20.493	138.67
20.5032	136.09
20.5133	137.65
20.5235	136.87
20.5337	139.07
20.5438	137.59
20.554	139.68
20.5641	140.60
20.5743	138.88
20.5845	136.43
20.5946	137.09
20.6048	137.79
20.615	137.33
20.6251	140.12
20.6353	138.13
20.6455	136.09
20.6556	138.87
20.6658	138.38
20.676	136.88
20.6861	137.03
20.6963	136.57
20.7065	136.01
20.7166	137.64
20.7268	137.54
20.7369	134.85
20.7471	135.23
20.7573	134.32
20.7674	134.42
20.7776	135.62
20.7878	133.71
20.7979	132.58
20.8081	133.70
20.8183	131.35
20.8284	132.97
20.8386	131.32
20.8488	131.11
20.8589	128.73
20.8691	130.17
20.8792	131.40
20.8894	129.68
20.8996	129.79
20.9097	128.69
20.9199	127.29
20.9301	128.70
20.9402	128.91
20.9504	127.90
20.9606	125.91
20.9707	124.94
20.9809	126.51
20.9911	126.60
21.0012	125.17
21.0114	122.10
21.0216	125.15
21.0317	123.19
21.0419	121.99
21.052	124.39
21.0622	123.82
21.0724	121.45
21.0825	124.45
21.0927	120.32
21.1029	120.85
21.113	120.68
21.1232	120.32
21.1334	120.06
21.1435	120.02
21.1537	120.01
21.1639	119.43
21.174	119.59
21.1842	119.21
21.1943	118.69
21.2045	119.17
21.2147	120.03
21.2248	117.02
21.235	117.55
21.2452	118.81
21.2553	117.00
21.2655	117.07
21.2757	118.14
21.2858	115.88
21.296	117.30
21.3062	114.73
21.3163	114.74
21.3265	117.48
21.3366	115.59
21.3468	115.20
21.357	116.52
21.3671	116.01
21.3773	114.12
21.3875	116.66
21.3976	114.87
21.4078	114.19
21.418	115.82
21.4281	117.30
21.4383	115.39
21.4485	117.22
21.4586	116.13
21.4688	115.05
21.479	116.90
21.4891	116.47
21.4993	115.22
21.5094	116.34
21.5196	117.91
21.5298	114.77
21.5399	115.92
21.5501	117.81
21.5603	115.58
21.5704	117.60
21.5806	116.85
21.5908	115.94
21.6009	116.95
21.6111	119.49
21.6213	118.70
21.6314	116.55
21.6416	117.21
21.6517	118.51
21.6619	119.46
21.6721	120.27
21.6822	119.43
21.6924	123.02
21.7026	121.97
21.7127	120.38
21.7229	121.99
21.7331	122.96
21.7432	122.49
21.7534	123.65
21.7636	125.35
21.7737	124.44
21.7839	127.34
21.7941	127.16
21.8042	125.93
21.8144	127.87
21.8245	129.97
21.8347	128.21
21.8449	131.34
21.855	132.73
21.8652	131.38
21.8754	131.46
21.8855	134.32
21.8957	135.05
21.9059	133.65
21.916	135.15
21.9262	134.83
21.9364	135.43
21.9465	138.46
21.9567	138.48
21.9668	137.96
21.977	139.29
21.9872	138.23
21.9973	139.95
22.0075	141.58
22.0177	141.23
22.0278	140.71
22.038	142.40
22.0482	142.13
22.0583	142.40
22.0685	143.62
22.0787	142.55
22.0888	145.05
22.099	145.35
22.1092	142.73
22.1193	144.52
22.1295	148.02
22.1396	145.27
22.1498	144.92
22.16	147.10
22.1701	144.01
22.1803	147.32
22.1905	147.91
22.2006	148.08
22.2108	148.10
22.221	150.85
22.2311	148.28
22.2413	150.38
22.2515	150.63
22.2616	149.19
22.2718	150.74
22.2819	150.78
22.2921	150.39
22.3023	152.37
22.3124	153.03
22.3226	151.30
22.3328	154.37
22.3429	151.90
22.3531	152.79
22.3633	153.40
22.3734	154.74
22.3836	151.29
22.3938	152.71
22.4039	154.32
22.4141	151.07
22.4243	154.94
22.4344	153.34
22.4446	150.61
22.4547	151.15
22.4649	153.72
22.4751	149.45
22.4852	151.51
22.4954	150.65
22.5056	150.82
22.5157	149.64
22.5259	151.99
22.5361	148.30
22.5462	149.71
22.5564	150.49
22.5666	146.15
22.5767	149.07
22.5869	148.16
22.597	145.88
22.6072	146.40
22.6174	146.00
22.6275	145.20
22.6377	145.93
22.6479	145.28
22.658	142.76
22.6682	142.81
22.6784	142.05
22.6885	141.11
22.6987	142.16
22.7089	141.22
22.719	139.71
22.7292	139.65
22.7394	138.41
22.7495	136.31
22.7597	139.45
22.7698	133.93
22.78	134.76
22.7902	135.59
22.8003	134.42
22.8105	132.26
22.8207	133.38
22.8308	133.42
22.841	130.54
22.8512	129.75
22.8613	130.49
22.8715	128.84
22.8817	127.35
22.8918	129.13
22.902	126.04
22.9121	127.09
22.9223	124.65
22.9325	124.02
22.9426	123.00
22.9528	122.66
22.963	121.82
22.9731	122.09
22.9833	120.62
22.9935	118.69
23.0036	120.32
23.0138	118.07
23.024	116.33
23.0341	116.73
23.0443	116.99
23.0545	114.61
23.0646	115.71
23.0748	114.12
23.0849	112.21
23.0951	113.33
23.1053	111.55
23.1154	112.09
23.1256	111.69
23.1358	109.63
23.1459	107.45
23.1561	109.09
23.1663	109.36
23.1764	106.32
23.1866	107.24
23.1968	107.40
23.2069	105.17
23.2171	106.48
23.2272	104.04
23.2374	103.40
23.2476	103.14
23.2577	102.95
23.2679	102.11
23.2781	102.16
23.2882	99.73
23.2984	100.57
23.3086	98.24
23.3187	98.00
23.3289	99.53
23.3391	98.16
23.3492	98.04
23.3594	97.30
23.3695	96.54
23.3797	96.98
23.3899	95.24
23.4	95.63
23.4102	95.16
23.4204	94.78
23.4305	95.08
23.4407	91.99
23.4509	91.91
23.461	92.45
23.4712	90.55
23.4814	89.60
23.4915	90.82
23.5017	90.04
23.5119	91.20
23.522	89.04
23.5322	89.57
23.5423	88.46
23.5525	88.30
23.5627	87.40
23.5728	87.98
23.583	87.13
23.5932	87.35
23.6033	86.17
23.6135	84.66
23.6237	85.44
23.6338	84.95
23.644	85.10
23.6542	84.16
23.6643	83.68
23.6745	83.36
23.6846	82.96
23.6948	82.63
23.705	82.52
23.7151	82.55
23.7253	80.91
23.7355	81.55
23.7456	80.04
23.7558	80.45
23.766	78.46
23.7761	80.44
23.7863	79.42
23.7965	79.27
23.8066	80.90
23.8168	77.88
23.827	76.83
23.8371	78.69
23.8473	78.09
23.8574	78.79
23.8676	77.43
23.8778	77.10
23.8879	76.80
23.8981	77.29
23.9083	74.90
23.9184	75.27
23.9286	76.04
23.9388	75.44
23.9489	74.34
23.9591	74.11
23.9693	74.63
23.9794	74.67
23.9896	73.96
23.9997	74.46
24.0099	72.32
24.0201	73.45
24.0302	71.53
24.0404	74.00
24.0506	72.34
24.0607	73.92
24.0709	70.55
24.0811	71.56
24.0912	72.18
24.1014	72.85
24.1116	71.85
24.1217	70.74
24.1319	70.90
24.1421	71.43
24.1522	70.37
24.1624	69.04
24.1725	70.96
24.1827	71.42
24.1929	69.79
24.203	70.09
24.2132	69.29
24.2234	70.35
24.2335	67.70
24.2437	66.83
24.2539	68.87
24.264	68.59
24.2742	69.09
24.2844	68.23
24.2945	68.30
24.3047	68.00
24.3148	67.71
24.325	67.31
24.3352	66.80
24.3453	67.23
24.3555	66.39
24.3657	67.10
24.3758	65.43
24.386	66.99
24.3962	65.26
24.4063	67.10
24.4165	66.88
24.4267	66.49
24.4368	65.58
24.447	65.11
24.4572	65.43
24.4673	65.55
24.4775	65.16
24.4876	64.63
24.4978	65.29
24.508	64.23
24.5181	62.73
24.5283	64.74
24.5385	63.65
24.5486	64.71
24.5588	63.45
24.569	62.62
24.5791	62.99
24.5893	63.98
24.5995	63.49
24.6096	64.65
24.6198	63.87
24.6299	63.07
24.6401	61.57
24.6503	63.43
24.6604	62.26
24.6706	61.80
24.6808	61.86
24.6909	62.84
24.7011	62.85
24.7113	63.13
24.7214	62.05
24.7316	61.78
24.7418	62.27
24.7519	61.26
24.7621	61.30
24.7723	62.63
24.7824	62.23
24.7926	61.43
24.8027	61.43
24.8129	62.30
24.8231	61.27
24.8332	60.50
24.8434	59.91
24.8536	60.88
24.8637	60.79
24.8739	61.23
24.8841	59.88
24.8942	61.43
24.9044	60.40
24.9146	60.68
24.9247	61.40
24.9349	60.30
24.945	58.85
24.9552	61.14
24.9654	59.82
24.9755	59.55
24.9857	58.94
24.9959	58.61
25.006	59.87
25.0162	59.00
25.0264	58.88
25.0365	59.22
25.0467	57.70
25.0569	59.96
25.067	59.71
25.0772	59.70
25.0874	58.26
25.0975	59.63
25.1077	58.61
25.1178	58.83
25.128	57.74
25.1382	58.43
25.1483	58.87
25.1585	59.20
25.1687	58.18
25.1788	57.30
25.189	58.37
25.1992	59.45
25.2093	57.91
25.2195	57.84
25.2297	58.53
25.2398	58.26
25.25	58.09
25.2601	57.26
25.2703	58.71
25.2805	58.41
25.2906	56.81
25.3008	57.49
25.311	57.91
25.3211	58.14
25.3313	57.21
25.3415	57.88
25.3516	56.97
25.3618	57.48
25.372	57.41
25.3821	56.08
25.3923	57.70
25.4024	56.02
25.4126	56.82
25.4228	57.46
25.4329	56.60
25.4431	56.56
25.4533	57.59
25.4634	57.56
25.4736	56.73
25.4838	56.86
25.4939	55.92
25.5041	55.68
25.5143	55.87
25.5244	54.99
25.5346	55.87
25.5448	56.68
25.5549	56.67
25.5651	56.84
25.5752	56.12
25.5854	56.98
25.5956	56.34
25.6057	56.13
25.6159	55.41
25.6261	55.40
25.6362	56.41
25.6464	56.54
25.6566	56.15
25.6667	54.68
25.6769	54.76
25.6871	55.09
25.6972	56.62
25.7074	56.19
25.7175	55.55
25.7277	55.37
25.7379	54.96
25.748	55.74
25.7582	55.13
25.7684	54.81
25.7785	54.38
25.7887	54.66
25.7989	54.29
25.809	55.24
25.8192	53.73
25.8294	53.59
25.8395	54.76
25.8497	54.62
25.8599	54.90
25.87	54.27
25.8802	53.91
25.8903	54.54
25.9005	54.53
25.9107	53.82
25.9208	53.97
25.931	53.60
25.9412	54.65
25.9513	53.87
25.9615	53.52
25.9717	53.95
25.9818	52.59
25.992	52.98
26.0022	54.30
26.0123	53.23
26.0225	53.77
26.0326	53.31
26.0428	53.10
26.053	54.47
26.0631	53.21
26.0733	53.71
26.0835	52.66
26.0936	52.88
26.1038	52.54
26.114	52.66
26.1241	53.56
26.1343	52.90
26.1445	53.81
26.1546	52.26
26.1648	53.01
26.175	52.85
26.1851	52.82
26.1953	52.25
26.2054	52.15
26.2156	51.62
26.2258	51.83
26.2359	52.57
26.2461	51.96
26.2563	52.48
26.2664	51.32
26.2766	51.92
26.2868	50.87
26.2969	51.92
26.3071	51.49
26.3173	50.76
26.3274	51.10
26.3376	50.05
26.3477	52.31
26.3579	51.14
26.3681	52.20
26.3782	51.41
26.3884	51.91
26.3986	51.31
26.4087	51.42
26.4189	52.05
26.4291	52.23
26.4392	51.80
26.4494	52.03
26.4596	50.89
26.4697	51.71
26.4799	51.62
26.4901	51.08
26.5002	50.82
26.5104	50.73
26.5205	50.40
26.5307	50.54
26.5409	50.51
26.551	50.50
26.5612	51.44
26.5714	50.93
26.5815	49.78
26.5917	50.71
26.6019	51.20
26.612	50.21
26.6222	49.95
26.6324	50.05
26.6425	50.79
26.6527	50.37
26.6628	51.18
26.673	50.75
26.6832	51.00
26.6933	50.34
26.7035	50.73
26.7137	49.05
26.7238	49.42
26.734	51.52
26.7442	49.71
26.7543	50.67
26.7645	49.57
26.7747	49.24
26.7848	50.90
26.795	49.43
26.8052	49.82
26.8153	50.09
26.8255	49.87
26.8356	49.88
26.8458	50.01
26.856	48.70
26.8661	49.76
26.8763	49.87
26.8865	49.17
26.8966	50.28
26.9068	50.38
26.917	48.68
26.9271	49.63
26.9373	49.25
26.9475	48.72
26.9576	49.38
26.9678	49.35
26.9779	49.21
26.9881	49.65
26.9983	48.38
27.0084	49.25
27.0186	47.99
27.0288	49.26
27.0389	48.80
27.0491	49.42
27.0593	49.63
27.0694	49.76
27.0796	49.54
27.0898	49.12
27.0999	48.92
27.1101	49.43
27.1202	49.48
27.1304	49.32
27.1406	48.58
27.1507	48.53
27.1609	49.57
27.1711	48.04
27.1812	50.26
27.1914	48.74
27.2016	49.16
27.2117	48.89
27.2219	48.76
27.2321	49.30
27.2422	48.80
27.2524	49.91
27.2626	49.62
27.2727	49.93
27.2829	48.85
27.293	50.59
27.3032	49.43
27.3134	48.95
27.3235	49.23
27.3337	49.54
27.3439	48.77
27.354	49.32
27.3642	50.19
27.3744	49.80
27.3845	48.82
27.3947	49.60
27.4049	48.55
27.415	48.77
27.4252	49.32
27.4353	49.85
27.4455	49.45
27.4557	49.64
27.4658	49.40
27.476	49.45
27.4862	48.89
27.4963	49.92
27.5065	49.47
27.5167	50.03
27.5268	48.80
27.537	49.82
27.5472	50.12
27.5573	49.35
27.5675	51.23
27.5777	51.18
27.5878	50.17
27.598	49.21
27.6081	49.63
27.6183	50.32
27.6285	50.51
27.6386	50.34
27.6488	50.58
27.659	51.55
27.6691	50.10
27.6793	51.82
27.6895	50.80
27.6996	50.90
27.7098	50.85
27.72	50.97
27.7301	50.71
27.7403	51.76
27.7504	51.85
27.7606	52.01
27.7708	52.18
27.7809	51.77
27.7911	51.78
27.8013	52.63
27.8114	51.75
27.8216	52.04
27.8318	53.09
27.8419	52.88
27.8521	53.49
27.8623	52.66
27.8724	54.14
27.8826	53.52
27.8928	53.81
27.9029	54.00
27.9131	55.27
27.9232	54.26
27.9334	53.96
27.9436	54.37
27.9537	55.15
27.9639	54.40
27.9741	55.34
27.9842	55.71
27.9944	56.83
28.0046	55.10
28.0147	56.84
28.0249	56.64
28.0351	56.26
28.0452	56.93
28.0554	56.54
28.0655	57.51
28.0757	57.55
28.0859	57.43
28.096	58.44
28.1062	58.60
28.1164	57.71
28.1265	58.96
28.1367	59.38
28.1469	60.04
28.157	59.00
28.1672	59.58
28.1774	59.44
28.1875	60.12
28.1977	59.92
28.2079	61.34
28.218	60.10
28.2282	61.18
28.2383	61.87
28.2485	62.14
28.2587	62.12
28.2688	62.27
28.279	61.60
28.2892	62.20
28.2993	62.74
28.3095	62.80
28.3197	64.66
28.3298	63.46
28.34	63.21
28.3502	63.25
28.3603	64.12
28.3705	64.30
28.3806	64.60
28.3908	65.21
28.401	64.28
28.4111	64.60
28.4213	64.34
28.4315	64.40
28.4416	65.98
28.4518	64.73
28.462	65.11
28.4721	65.11
28.4823	63.96
28.4925	64.16
28.5026	65.09
28.5128	64.04
28.523	64.70
28.5331	64.01
28.5433	64.66
28.5534	64.49
28.5636	64.77
28.5738	63.77
28.5839	63.81
28.5941	64.84
28.6043	64.49
28.6144	63.03
28.6246	63.41
28.6348	63.68
28.6449	62.93
28.6551	63.10
28.6653	62.77
28.6754	62.65
28.6856	63.67
28.6957	62.66
28.7059	62.29
28.7161	62.36
28.7262	62.29
28.7364	60.89
28.7466	62.85
28.7567	62.30
28.7669	61.37
28.7771	61.55
28.7872	61.04
28.7974	61.03
28.8076	60.86
28.8177	60.88
28.8279	60.39
28.8381	60.60
28.8482	59.94
28.8584	58.73
28.8685	57.27
28.8787	59.92
28.8889	58.64
28.899	58.65
28.9092	58.62
28.9194	57.34
28.9295	58.27
28.9397	57.98
28.9499	57.34
28.96	56.84
28.9702	56.97
28.9804	56.20
28.9905	56.84
29.0007	55.65
29.0108	56.04
29.021	55.26
29.0312	55.60
29.0413	55.54
29.0515	54.03
29.0617	55.55
29.0718	52.99
29.082	53.31
29.0922	54.19
29.1023	53.70
29.1125	53.51
29.1227	53.32
29.1328	53.47
29.143	52.90
29.1531	52.96
29.1633	51.82
29.1735	51.96
29.1836	51.96
29.1938	52.38
29.204	51.49
29.2141	51.80
29.2243	50.83
29.2345	50.55
29.2446	51.38
29.2548	50.87
29.265	50.59
29.2751	50.32
29.2853	49.65
29.2955	49.59
29.3056	50.70
29.3158	49.37
29.3259	49.01
29.3361	48.65
29.3463	48.34
29.3564	47.59
29.3666	49.00
29.3768	48.73
29.3869	48.85
29.3971	48.16
29.4073	47.87
29.4174	47.56
29.4276	48.75
29.4378	47.57
29.4479	47.31
29.4581	47.88
29.4682	46.96
29.4784	47.68
29.4886	47.76
29.4987	45.79
29.5089	46.79
29.5191	46.67
29.5292	46.69
29.5394	46.62
29.5496	46.52
29.5597	45.85
29.5699	45.73
29.5801	46.11
29.5902	45.21
29.6004	45.33
29.6106	45.97
29.6207	46.35
29.6309	45.20
29.641	45.89
29.6512	45.40
29.6614	44.65
29.6715	45.80
29.6817	45.05
29.6919	44.90
29.702	44.62
29.7122	44.48
29.7224	45.82
29.7325	44.62
29.7427	44.31
29.7529	44.02
29.763	44.53
29.7732	43.84
29.7833	44.24
29.7935	44.26
29.8037	43.52
29.8138	43.98
29.824	43.53
29.8342	44.20
29.8443	43.19
29.8545	44.10
29.8647	43.14
29.8748	43.79
29.885	44.23
29.8952	44.16
29.9053	44.35
29.9155	43.59
29.9257	44.74
29.9358	43.71
29.946	44.14
29.9561	43.66
29.9663	43.22
29.9765	42.02
29.9866	43.01
29.9968	42.73
30.007	43.37
30.0171	43.88
30.0273	42.82
30.0375	42.16
30.0476	42.84
30.0578	42.75
30.068	43.48
30.0781	42.70
30.0883	43.13
30.0984	42.83
30.1086	41.90
30.1188	42.07
30.1289	43.25
30.1391	41.98
30.1493	41.86
30.1594	41.26
30.1696	41.21
30.1798	42.33
30.1899	41.95
30.2001	41.04
30.2103	42.22
30.2204	41.60
30.2306	41.41
30.2408	41.06
30.2509	40.76
30.2611	41.44
30.2712	40.99
30.2814	40.99
30.2916	40.49
30.3017	40.30
30.3119	40.70
30.3221	41.24
30.3322	40.20
30.3424	40.20
30.3526	40.15
30.3627	40.08
30.3729	40.00
30.3831	40.00
30.3932	39.93
30.4034	39.69
30.4135	39.57
30.4237	38.45
30.4339	39.02
30.444	39.02
30.4542	38.27
30.4644	40.38
30.4745	38.32
30.4847	39.29
30.4949	37.66
30.505	39.19
30.5152	39.82
30.5254	37.38
30.5355	37.93
30.5457	38.73
30.5559	37.38
30.566	37.62
30.5762	37.98
30.5863	38.72
30.5965	37.71
30.6067	37.46
30.6168	37.99
30.627	37.55
30.6372	37.66
30.6473	38.15
30.6575	37.24
30.6677	38.16
30.6778	37.58
30.688	37.23
30.6982	36.75
30.7083	37.57
30.7185	37.12
30.7286	36.45
30.7388	37.81
30.749	36.83
30.7591	36.60
30.7693	37.67
30.7795	36.09
30.7896	36.34
30.7998	35.74
30.81	36.55
30.8201	36.50
30.8303	37.20
30.8405	35.95
30.8506	35.84
30.8608	36.07
30.871	35.52
30.8811	36.09
30.8913	36.30
30.9014	35.98
30.9116	36.59
30.9218	36.06
30.9319	35.47
30.9421	35.74
30.9523	35.82
30.9624	34.87
30.9726	35.80
30.9828	35.23
30.9929	35.24
31.0031	35.43
31.0133	35.77
31.0234	35.35
31.0336	34.87
31.0437	35.43
31.0539	35.36
31.0641	35.07
31.0742	36.23
31.0844	34.53
31.0946	35.31
31.1047	34.12
31.1149	33.77
31.1251	34.79
31.1352	35.38
31.1454	34.98
31.1556	34.54
31.1657	35.15
31.1759	34.48
31.186	34.11
31.1962	34.91
31.2064	34.30
31.2165	35.19
31.2267	34.98
31.2369	33.98
31.247	34.26
31.2572	34.27
31.2674	33.79
31.2775	34.30
31.2877	34.17
31.2979	34.42
31.308	33.91
31.3182	34.30
31.3284	33.20
31.3385	33.50
31.3487	34.76
31.3588	33.66
31.369	34.02
31.3792	34.06
31.3893	34.67
31.3995	34.49
31.4097	34.05
31.4198	33.27
31.43	33.04
31.4402	34.02
31.4503	33.72
31.4605	33.90
31.4707	33.96
31.4808	32.91
31.491	33.96
31.5011	33.87
31.5113	33.45
31.5215	33.90
31.5316	34.04
31.5418	33.98
31.552	33.99
31.5621	33.30
31.5723	32.95
31.5825	33.99
31.5926	33.38
31.6028	33.18
31.613	34.05
31.6231	33.40
31.6333	33.51
31.6435	32.99
31.6536	33.71
31.6638	33.48
31.6739	33.74
31.6841	32.87
31.6943	33.46
31.7044	33.84
31.7146	33.10
31.7248	33.20
31.7349	33.20
31.7451	32.48
31.7553	33.85
31.7654	33.10
31.7756	33.01
31.7858	32.60
31.7959	33.01
31.8061	33.17
31.8162	32.49
31.8264	32.60
31.8366	33.12
31.8467	33.02
31.8569	33.57
31.8671	32.40
31.8772	32.52
31.8874	33.40
31.8976	34.19
31.9077	32.55
31.9179	32.40
31.9281	32.61
31.9382	32.65
31.9484	33.02
31.9586	32.88
31.9687	32.68
31.9789	33.43
31.989	33.22
31.9992	32.62
32.0094	32.23
32.0195	33.22
32.0297	32.38
32.0399	32.48
32.05	32.51
32.0602	32.49
32.0704	31.93
32.0805	34.01
32.0907	32.44
32.1009	32.62
32.111	32.77
32.1212	32.10
32.1313	32.62
32.1415	33.13
32.1517	33.20
32.1618	33.02
32.172	33.01
32.1822	32.08
32.1923	33.76
32.2025	32.93
32.2127	32.90
32.2228	32.68
32.233	32.40
32.2432	31.88
32.2533	32.28
32.2635	33.54
32.2737	32.38
32.2838	32.10
32.294	32.74
32.3041	32.57
32.3143	32.15
32.3245	32.76
32.3346	33.42
32.3448	32.17
32.355	32.49
32.3651	32.55
32.3753	32.98
32.3855	32.83
32.3956	32.70
32.4058	32.82
32.416	32.68
32.4261	32.89
32.4363	32.07
32.4464	32.66
32.4566	31.83
32.4668	32.33
32.4769	32.39
32.4871	32.02
32.4973	32.91
32.5074	33.39
32.5176	32.07
32.5278	32.47
32.5379	32.46
32.5481	32.04
32.5583	32.35
32.5684	31.84
32.5786	31.40
32.5888	32.53
32.5989	32.87
32.6091	32.71
32.6192	32.39
32.6294	32.15
32.6396	32.20
32.6497	32.24
32.6599	33.07
32.6701	32.47
32.6802	33.07
32.6904	32.62
32.7006	31.10
32.7107	32.06
32.7209	32.88
32.7311	31.29
32.7412	32.32
32.7514	33.28
32.7615	31.76
32.7717	33.29
32.7819	32.85
32.792	31.30
32.8022	32.45
32.8124	33.28
32.8225	31.62
32.8327	32.61
32.8429	31.98
32.853	31.89
32.8632	31.88
32.8734	32.08
32.8835	32.60
32.8937	32.19
32.9039	32.28
32.914	31.77
32.9242	31.45
32.9343	32.54
32.9445	32.66
32.9547	31.98
32.9648	32.26
32.975	32.32
32.9852	31.95
32.9953	32.20
33.0055	32.41
33.0157	32.48
33.0258	31.38
33.036	31.82
33.0462	32.75
33.0563	33.01
33.0665	32.50
33.0766	31.95
33.0868	31.85
33.097	32.18
33.1071	32.83
33.1173	31.55
33.1275	32.80
33.1376	32.19
33.1478	32.60
33.158	32.30
33.1681	32.51
33.1783	31.48
33.1885	31.90
33.1986	32.93
33.2088	32.91
33.2189	31.96
33.2291	32.22
33.2393	32.18
33.2494	32.35
33.2596	33.29
33.2698	32.49
33.2799	32.87
33.2901	32.90
33.3003	32.35
33.3104	32.62
33.3206	32.18
33.3308	32.52
33.3409	32.54
33.3511	33.44
33.3613	32.77
33.3714	32.45
33.3816	32.46
33.3917	33.09
33.4019	32.62
33.4121	32.18
33.4222	32.27
33.4324	32.72
33.4426	32.32
33.4527	33.20
33.4629	32.52
33.4731	32.28
33.4832	32.78
33.4934	32.44
33.5036	32.19
33.5137	32.37
33.5239	32.71
33.534	32.46
33.5442	32.57
33.5544	32.45
33.5645	32.30
33.5747	31.68
33.5849	32.04
33.595	31.79
33.6052	30.88
33.6154	32.05
33.6255	31.98
33.6357	30.70
33.6459	31.92
33.656	32.18
33.6662	31.78
33.6764	31.71
33.6865	31.15
33.6967	30.85
33.7068	32.01
33.717	30.61
33.7272	30.82
33.7373	31.62
33.7475	30.57
33.7577	31.01
33.7678	30.44
33.778	30.11
33.7882	29.87
33.7983	30.78
33.8085	30.70
33.8187	30.43
33.8288	30.09
33.839	30.69
33.8491	30.27
33.8593	30.23
33.8695	29.37
33.8796	29.52
33.8898	29.62
33.9	29.12
33.9101	29.73
33.9203	30.23
33.9305	29.37
33.9406	29.26
33.9508	29.71
33.961	29.30
33.9711	28.84
33.9813	29.38
33.9915	29.10
34.0016	28.15
34.0118	29.31
34.0219	28.49
34.0321	29.52
34.0423	28.85
34.0524	29.09
34.0626	28.71
34.0728	29.21
34.0829	28.40
34.0931	28.38
34.1033	28.59
34.1134	27.22
34.1236	28.71
34.1338	28.14
34.1439	27.79
34.1541	28.21
34.1642	27.88
34.1744	28.14
34.1846	28.32
34.1947	27.81
34.2049	27.51
34.2151	27.70
34.2252	27.98
34.2354	28.07
34.2456	27.96
34.2557	27.86
34.2659	27.81
34.2761	28.01
34.2862	27.54
34.2964	27.63
34.3066	26.76
34.3167	27.09
34.3269	27.00
34.337	27.30
34.3472	26.91
34.3574	27.50
34.3675	26.94
34.3777	27.30
34.3879	27.69
34.398	27.02
34.4082	26.77
34.4184	27.38
34.4285	27.23
34.4387	27.02
34.4489	26.91
34.459	27.37
34.4692	26.16
34.4793	27.21
34.4895	27.21
34.4997	27.20
34.5098	26.85
34.52	27.07
34.5302	27.21
34.5403	26.95
34.5505	27.02
34.5607	26.48
34.5708	27.40
34.581	26.62
34.5912	26.58
34.6013	26.70
34.6115	26.93
34.6217	26.98
34.6318	26.85
34.642	26.90
34.6521	26.63
34.6623	26.32
34.6725	26.69
34.6826	26.38
34.6928	26.70
34.703	26.15
34.7131	26.22
34.7233	26.18
34.7335	26.52
34.7436	25.98
34.7538	27.07
34.764	25.55
34.7741	25.77
34.7843	26.40
34.7944	25.54
34.8046	26.23
34.8148	25.92
34.8249	27.01
34.8351	25.53
34.8453	25.93
34.8554	26.05
34.8656	25.82
34.8758	26.44
34.8859	25.71
34.8961	26.01
34.9063	26.26
34.9164	26.18
34.9266	26.03
34.9367	25.55
34.9469	25.93
34.9571	25.41
34.9672	26.01
34.9774	25.93
34.9876	25.85
34.9977	25.99
35.0079	26.06
35.0181	25.99
35.0282	25.37
35.0384	25.05
35.0486	26.15
35.0587	25.39
35.0689	26.22
35.0791	25.97
35.0892	25.99
35.0994	25.60
35.1095	25.91
35.1197	25.16
35.1299	25.42
35.14	25.73
35.1502	25.69
35.1604	25.80
35.1705	25.24
35.1807	25.30
35.1909	26.21
35.201	25.47
35.2112	25.69
35.2214	25.58
35.2315	25.73
35.2417	25.79
35.2518	24.77
35.262	26.12
35.2722	25.65
35.2823	25.85
35.2925	25.54
35.3027	24.57
35.3128	25.11
35.323	25.30
35.3332	25.08
35.3433	25.87
35.3535	25.45
35.3637	25.09
35.3738	25.15
35.384	25.46
35.3942	25.73
35.4043	25.62
35.4145	24.93
35.4246	26.07
35.4348	25.28
35.445	24.65
35.4551	25.90
35.4653	25.61
35.4755	25.16
35.4856	25.75
35.4958	25.12
35.506	25.57
35.5161	25.01
35.5263	25.39
35.5365	25.16
35.5466	25.31
35.5568	25.00
35.5669	24.96
35.5771	25.40
35.5873	24.87
35.5974	25.37
35.6076	25.19
35.6178	24.97
35.6279	25.15
35.6381	25.03
35.6483	24.86
35.6584	24.99
35.6686	24.65
35.6788	25.15
35.6889	25.46
35.6991	24.89
35.7093	25.45
35.7194	24.51
35.7296	24.75
35.7397	25.01
35.7499	26.24
35.7601	24.79
35.7702	25.17
35.7804	25.43
35.7906	25.07
35.8007	24.96
35.8109	25.39
35.8211	24.66
35.8312	24.87
35.8414	24.63
35.8516	25.15
35.8617	25.27
35.8719	25.41
35.882	24.04
35.8922	25.21
35.9024	25.05
35.9125	24.73
35.9227	25.22
35.9329	24.81
35.943	24.79
35.9532	24.72
35.9634	24.34
35.9735	24.87
35.9837	25.12
35.9939	25.39
36.004	24.84
36.0142	24.78
36.0244	25.18
36.0345	24.49
36.0447	24.63
36.0548	25.98
36.065	24.71
36.0752	24.52
36.0853	24.85
36.0955	24.57
36.1057	24.57
36.1158	25.27
36.126	24.74
36.1362	24.96
36.1463	24.68
36.1565	24.84
36.1667	25.18
36.1768	24.14
36.187	25.68
36.1971	24.73
36.2073	25.12
36.2175	24.16
36.2276	24.76
36.2378	24.75
36.248	26.04
36.2581	25.29
36.2683	25.07
36.2785	24.93
36.2886	25.16
36.2988	24.84
36.309	24.62
36.3191	25.07
36.3293	24.82
36.3395	25.23
36.3496	24.76
36.3598	24.51
36.3699	24.38
36.3801	24.35
36.3903	25.01
36.4004	25.38
36.4106	25.05
36.4208	24.43
36.4309	24.57
36.4411	24.60
36.4513	24.68
36.4614	24.77
36.4716	24.71
36.4818	25.09
36.4919	25.29
36.5021	24.28
36.5122	25.13
36.5224	24.85
36.5326	24.88
36.5427	25.18
36.5529	24.20
36.5631	24.52
36.5732	24.93
36.5834	25.03
36.5936	25.03
36.6037	24.31
36.6139	25.69
36.6241	24.93
36.6342	25.38
36.6444	24.75
36.6546	25.52
36.6647	24.98
36.6749	24.54
36.685	25.04
36.6952	25.43
36.7054	25.07
36.7155	25.16
36.7257	25.51
36.7359	24.20
36.746	24.79
36.7562	25.27
36.7664	24.37
36.7765	25.20
36.7867	24.70
36.7969	25.13
36.807	25.28
36.8172	25.74
36.8273	24.73
36.8375	25.12
36.8477	24.85
36.8578	24.70
36.868	25.47
36.8782	25.46
36.8883	24.43
36.8985	24.89
36.9087	25.47
36.9188	25.71
36.929	24.77
36.9392	24.93
36.9493	25.34
36.9595	25.32
36.9696	25.46
36.9798	25.74
36.99	25.53
37.0001	25.39
37.0103	24.52
37.0205	24.79
37.0306	25.72
37.0408	25.41
37.051	25.82
37.0611	25.13
37.0713	25.92
37.0815	25.68
37.0916	26.41
37.1018	25.46
37.112	25.42
37.1221	25.65
37.1323	25.47
37.1424	25.05
37.1526	26.39
37.1628	25.50
37.1729	25.66
37.1831	26.45
37.1933	26.46
37.2034	25.25
37.2136	26.66
37.2238	26.27
37.2339	25.52
37.2441	26.35
37.2543	25.62
37.2644	26.63
37.2746	25.70
37.2847	25.79
37.2949	26.54
37.3051	25.99
37.3152	25.80
37.3254	25.79
37.3356	25.80
37.3457	25.92
37.3559	26.57
37.3661	26.07
37.3762	25.61
37.3864	25.82
37.3966	26.48
37.4067	25.86
37.4169	26.10
37.4271	26.43
37.4372	25.76
37.4474	26.32
37.4575	27.09
37.4677	27.10
37.4779	26.09
37.488	26.54
37.4982	26.51
37.5084	27.21
37.5185	26.50
37.5287	26.23
37.5389	26.88
37.549	26.80
37.5592	25.92
37.5694	26.55
37.5795	26.58
37.5897	26.40
37.5998	26.52
37.61	26.59
37.6202	27.69
37.6303	26.49
37.6405	27.07
37.6507	27.20
37.6608	27.29
37.671	27.35
37.6812	27.16
37.6913	26.80
37.7015	26.99
37.7117	27.20
37.7218	27.22
37.732	27.23
37.7422	27.10
37.7523	27.35
37.7625	26.46
37.7726	27.41
37.7828	28.04
37.793	27.10
37.8031	26.91
37.8133	27.29
37.8235	27.27
37.8336	26.93
37.8438	27.94
37.854	28.23
37.8641	28.23
37.8743	27.70
37.8845	27.24
37.8946	27.61
37.9048	27.38
37.9149	28.45
37.9251	27.41
37.9353	28.05
37.9454	28.60
37.9556	27.62
37.9658	26.90
37.9759	27.35
37.9861	27.88
37.9963	28.49
38.0064	27.12
38.0166	27.52
38.0268	27.62
38.0369	27.61
38.0471	27.76
38.0573	28.27
38.0674	27.93
38.0776	28.84
38.0877	28.40
38.0979	28.45
38.1081	28.91
38.1182	28.09
38.1284	28.53
38.1386	28.40
38.1487	29.04
38.1589	29.20
38.1691	28.87
38.1792	29.37
38.1894	28.41
38.1996	28.84
38.2097	28.60
38.2199	28.77
38.23	28.85
38.2402	29.01
38.2504	28.66
38.2605	28.76
38.2707	30.18
38.2809	29.27
38.291	28.37
38.3012	29.52
38.3114	29.11
38.3215	29.07
38.3317	29.49
38.3419	28.85
38.352	28.29
38.3622	29.03
38.3724	28.87
38.3825	29.71
38.3927	29.37
38.4028	28.74
38.413	29.35
38.4232	28.84
38.4333	29.81
38.4435	29.16
38.4537	29.43
38.4638	29.02
38.474	29.12
38.4842	29.70
38.4943	29.40
38.5045	28.70
38.5147	29.54
38.5248	29.51
38.535	30.18
38.5451	29.38
38.5553	29.09
38.5655	28.63
38.5756	29.12
38.5858	29.59
38.596	28.55
38.6061	29.60
38.6163	28.79
38.6265	29.01
38.6366	29.96
38.6468	29.63
38.657	29.35
38.6671	28.80
38.6773	29.02
38.6875	29.07
38.6976	29.40
38.7078	29.23
38.7179	28.29
38.7281	28.76
38.7383	29.20
38.7484	29.94
38.7586	28.74
38.7688	29.24
38.7789	28.54
38.7891	28.77
38.7993	28.40
38.8094	28.72
38.8196	29.48
38.8298	29.82
38.8399	29.41
38.8501	28.26
38.8602	28.62
38.8704	29.31
38.8806	28.48
38.8907	29.52
38.9009	28.61
38.9111	28.69
38.9212	29.04
38.9314	28.86
38.9416	28.84
38.9517	28.06
38.9619	28.48
38.9721	27.96
38.9822	28.93
38.9924	28.55
39.0025	28.61
39.0127	28.77
39.0229	28.24
39.033	28.79
39.0432	28.13
39.0534	28.35
39.0635	28.18
39.0737	28.59
39.0839	27.41
39.094	28.07
39.1042	28.56
39.1144	28.77
39.1245	27.85
39.1347	28.43
39.1449	27.92
39.155	28.48
39.1652	28.32
39.1753	28.05
39.1855	28.07
39.1957	27.11
39.2058	27.51
39.216	28.00
39.2262	27.18
39.2363	26.96
39.2465	27.71
39.2567	27.27
39.2668	28.30
39.277	27.59
39.2872	27.54
39.2973	28.18
39.3075	27.18
39.3176	27.82
39.3278	27.27
39.338	27.85
39.3481	27.07
39.3583	27.03
39.3685	27.56
39.3786	27.35
39.3888	27.34
39.399	25.75
39.4091	26.68
39.4193	27.62
39.4295	26.13
39.4396	26.71
39.4498	26.07
39.46	26.42
39.4701	27.07
39.4803	27.48
39.4904	26.94
39.5006	26.96
39.5108	26.39
39.5209	26.27
39.5311	25.79
39.5413	26.55
39.5514	26.40
39.5616	26.02
39.5718	27.45
39.5819	26.70
39.5921	25.65
39.6023	26.26
39.6124	26.21
39.6226	25.89
39.6327	26.95
39.6429	26.18
39.6531	26.22
39.6632	25.71
39.6734	25.82
39.6836	26.52
39.6937	26.35
39.7039	25.95
39.7141	25.86
39.7242	25.88
39.7344	26.13
39.7446	25.84
39.7547	26.32
39.7649	25.79
39.7751	25.93
39.7852	25.18
39.7954	25.65
39.8055	26.74
39.8157	25.37
39.8259	25.37
39.836	25.63
39.8462	26.59
39.8564	25.76
39.8665	25.35
39.8767	25.40
39.8869	25.82
39.897	25.27
39.9072	26.10
39.9174	25.63
39.9275	25.29
39.9377	25.87
39.9478	25.63
39.958	26.32
39.9682	25.32
39.9783	25.90
39.9885	25.19
39.9987	25.55
40.0088	25.38
