5.0023	48.05
5.0125	46.42
5.0226	45.80
5.0328	45.15
5.043	44.87
5.0531	44.08
5.0633	43.86
5.0735	43.76
5.0836	43.00
5.0938	41.71
5.1039	41.96
5.1141	41.68
5.1243	40.54
5.1344	40.18
5.1446	39.78
5.1548	39.79
5.1649	38.88
5.1751	38.01
5.1853	37.89
5.1954	36.98
5.2056	36.76
5.2158	35.68
5.2259	34.85
5.2361	35.38
5.2462	34.63
5.2564	34.00
5.2666	34.65
5.2767	34.24
5.2869	33.35
5.2971	33.04
5.3072	33.35
5.3174	33.18
5.3276	33.46
5.3377	31.70
5.3479	31.86
5.3581	31.60
5.3682	30.48
5.3784	29.76
5.3886	29.97
5.3987	29.87
5.4089	29.45
5.419	28.96
5.4292	29.35
5.4394	27.41
5.4495	28.29
5.4597	29.09
5.4699	28.17
5.48	27.63
5.4902	27.26
5.5004	27.64
5.5105	27.09
5.5207	27.17
5.5309	26.24
5.541	26.71
5.5512	25.55
5.5613	26.12
5.5715	26.17
5.5817	25.44
5.5918	24.89
5.602	25.36
5.6122	24.59
5.6223	25.15
5.6325	24.78
5.6427	24.59
5.6528	24.00
5.663	24.34
5.6732	24.22
5.6833	24.00
5.6935	23.73
5.7036	23.83
5.7138	23.38
5.724	23.65
5.7341	22.76
5.7443	22.91
5.7545	22.96
5.7646	22.54
5.7748	22.63
5.785	23.54
5.7951	22.79
5.8053	21.54
5.8155	22.37
5.8256	22.50
5.8358	21.74
5.846	22.66
5.8561	22.88
5.8663	22.84
5.8764	22.50
5.8866	22.79
5.8968	21.37
5.9069	22.30
5.9171	22.35
5.9273	22.19
5.9374	21.92
5.9476	22.16
5.9578	21.10
5.9679	21.57
5.9781	22.25
5.9883	21.61
5.9984	22.04
6.0086	21.76
6.0187	21.28
6.0289	22.13
6.0391	21.65
6.0492	21.13
6.0594	22.14
6.0696	20.28
6.0797	21.75
6.0899	21.12
6.1001	21.06
6.1102	21.32
6.1204	21.23
6.1306	21.50
6.1407	21.34
6.1509	21.70
6.1611	21.03
6.1712	21.27
6.1814	21.85
6.1915	21.24
6.2017	21.54
6.2119	21.48
6.222	20.07
6.2322	21.54
6.2424	21.72
6.2525	20.89
6.2627	20.90
6.2729	21.21
6.283	20.79
6.2932	21.20
6.3034	20.38
6.3135	21.19
6.3237	21.40
6.3338	21.16
6.344	20.71
6.3542	20.62
6.3643	21.13
6.3745	21.05
6.3847	20.69
6.3948	20.54
6.405	20.76
6.4152	20.57
6.4253	21.19
6.4355	21.20
6.4457	20.60
6.4558	21.13
6.466	21.55
6.4762	21.48
6.4863	20.65
6.4965	20.37
6.5066	20.74
6.5168	20.85
6.527	20.81
6.5371	20.36
6.5473	20.73
6.5575	20.96
6.5676	20.62
6.5778	21.71
6.588	21.15
6.5981	20.70
6.6083	20.18
6.6185	20.21
6.6286	20.70
6.6388	21.60
6.6489	21.04
6.6591	20.70
6.6693	21.01
6.6794	21.37
6.6896	20.98
6.6998	21.48
6.7099	21.48
6.7201	20.59
6.7303	21.52
6.7404	21.46
6.7506	21.51
6.7608	21.40
6.7709	21.19
6.7811	21.30
6.7913	21.38
6.8014	20.90
6.8116	21.05
6.8217	20.96
6.8319	20.61
6.8421	20.70
6.8522	21.09
6.8624	21.52
6.8726	21.00
6.8827	21.08
6.8929	21.23
6.9031	20.84
6.9132	20.60
6.9234	21.15
6.9336	20.87
6.9437	21.37
6.9539	21.27
6.964	21.15
6.9742	21.23
6.9844	21.31
6.9945	20.87
7.0047	21.01
7.0149	21.30
7.025	22.59
7.0352	20.95
7.0454	21.46
7.0555	21.78
7.0657	21.43
7.0759	20.89
7.086	21.72
7.0962	21.21
7.1064	21.70
7.1165	21.17
7.1267	21.08
7.1368	21.73
7.147	21.14
7.1572	21.31
7.1673	21.49
7.1775	21.65
7.1877	21.67
7.1978	22.01
7.208	21.29
7.2182	21.66
7.2283	22.30
7.2385	22.16
7.2487	22.27
7.2588	21.84
7.269	22.38
7.2791	21.70
7.2893	22.04
7.2995	22.05
7.3096	21.13
7.3198	21.70
7.33	22.28
7.3401	21.68
7.3503	22.35
7.3605	21.68
7.3706	22.43
7.3808	21.88
7.391	21.11
7.4011	21.82
7.4113	22.04
7.4215	21.74
7.4316	22.20
7.4418	22.09
7.4519	22.19
7.4621	22.05
7.4723	22.35
7.4824	22.07
7.4926	22.97
7.5028	21.60
7.5129	21.75
7.5231	22.53
7.5333	23.09
7.5434	21.82
7.5536	22.26
7.5638	23.04
7.5739	22.22
7.5841	22.62
7.5942	22.24
7.6044	22.63
7.6146	22.66
7.6247	22.16
7.6349	22.44
7.6451	22.18
7.6552	22.57
7.6654	23.23
7.6756	21.51
7.6857	23.26
7.6959	22.12
7.7061	22.63
7.7162	21.98
7.7264	22.68
7.7365	22.65
7.7467	21.99
7.7569	23.55
7.767	22.88
7.7772	24.10
7.7874	22.12
7.7975	22.64
7.8077	23.57
7.8179	23.16
7.828	23.18
7.8382	22.79
7.8484	23.30
7.8585	22.59
7.8687	23.04
7.8789	22.80
7.889	23.24
7.8992	22.84
7.9093	24.05
7.9195	23.60
7.9297	23.42
7.9398	22.95
7.95	22.73
7.9602	22.88
7.9703	23.16
7.9805	23.91
7.9907	23.48
8.0008	23.34
8.011	23.28
8.0212	23.10
8.0313	22.37
8.0415	23.88
8.0516	23.53
8.0618	23.13
8.072	23.63
8.0821	23.96
8.0923	22.88
8.1025	23.58
8.1126	24.15
8.1228	23.32
8.133	23.42
8.1431	23.91
8.1533	23.64
8.1635	23.96
8.1736	23.02
8.1838	23.54
8.194	24.36
8.2041	23.39
8.2143	23.52
8.2244	24.24
8.2346	24.37
8.2448	23.62
8.2549	24.32
8.2651	24.15
8.2753	24.14
8.2854	24.41
8.2956	24.61
8.3058	23.95
8.3159	24.71
8.3261	24.33
8.3363	23.97
8.3464	24.25
8.3566	24.49
8.3667	23.88
8.3769	23.79
8.3871	24.87
8.3972	23.67
8.4074	24.05
8.4176	24.43
8.4277	23.65
8.4379	24.52
8.4481	24.55
8.4582	24.63
8.4684	23.69
8.4786	24.31
8.4887	24.23
8.4989	24.25
8.5091	24.97
8.5192	23.59
8.5294	25.00
8.5395	24.68
8.5497	24.21
8.5599	24.36
8.57	25.04
8.5802	24.60
8.5904	25.12
8.6005	25.09
8.6107	24.71
8.6209	24.49
8.631	25.68
8.6412	25.34
8.6514	24.62
8.6615	25.80
8.6717	25.03
8.6818	24.90
8.692	25.65
8.7022	25.57
8.7123	24.47
8.7225	25.33
8.7327	24.82
8.7428	25.34
8.753	24.86
8.7632	24.66
8.7733	24.90
8.7835	25.96
8.7937	25.83
8.8038	25.69
8.814	25.66
8.8242	25.16
8.8343	25.32
8.8445	25.12
8.8546	25.38
8.8648	26.11
8.875	25.41
8.8851	25.38
8.8953	26.40
8.9055	25.98
8.9156	25.57
8.9258	26.00
8.936	25.43
8.9461	26.33
8.9563	26.26
8.9665	25.65
8.9766	26.11
8.9868	25.96
8.9969	26.41
9.0071	25.72
9.0173	26.09
9.0274	27.04
9.0376	25.87
9.0478	25.92
9.0579	26.57
9.0681	25.57
9.0783	25.95
9.0884	26.34
9.0986	25.42
9.1088	26.69
9.1189	26.23
9.1291	26.24
9.1393	25.98
9.1494	26.49
9.1596	26.70
9.1697	26.78
9.1799	26.41
9.1901	26.57
9.2002	26.77
9.2104	26.23
9.2206	26.69
9.2307	26.35
9.2409	26.68
9.2511	26.34
9.2612	26.41
9.2714	27.59
9.2816	27.08
9.2917	26.73
9.3019	27.26
9.312	27.33
9.3222	26.72
9.3324	27.77
9.3425	26.92
9.3527	27.41
9.3629	26.78
9.373	27.56
9.3832	27.02
9.3934	27.21
9.4035	26.78
9.4137	26.60
9.4239	27.49
9.434	26.80
9.4442	26.57
9.4544	27.10
9.4645	26.90
9.4747	27.20
9.4848	27.88
9.495	26.97
9.5052	27.90
9.5153	27.21
9.5255	28.08
9.5357	26.76
9.5458	26.84
9.556	27.64
9.5662	27.85
9.5763	28.31
9.5865	27.95
9.5967	28.13
9.6068	28.80
9.617	27.89
9.6271	28.38
9.6373	27.90
9.6475	27.14
9.6576	28.07
9.6678	27.70
9.678	27.48
9.6881	28.01
9.6983	27.73
9.7085	27.70
9.7186	28.21
9.7288	27.63
9.739	28.08
9.7491	27.45
9.7593	28.15
9.7694	28.75
9.7796	28.65
9.7898	28.36
9.7999	28.00
9.8101	28.79
9.8203	27.98
9.8304	27.03
9.8406	27.96
9.8508	28.09
9.8609	27.74
9.8711	28.35
9.8813	29.16
9.8914	27.86
9.9016	28.79
9.9118	28.87
9.9219	28.85
9.9321	29.12
9.9422	29.09
9.9524	28.27
9.9626	28.07
9.9727	28.62
9.9829	28.57
9.9931	28.89
10.0032	27.93
10.0134	28.37
10.0236	29.18
10.0337	28.16
10.0439	28.55
10.0541	29.21
10.0642	28.57
10.0744	29.87
10.0845	28.83
10.0947	28.76
10.1049	29.63
10.115	28.82
10.1252	29.13
10.1354	29.23
10.1455	28.74
10.1557	29.16
10.1659	29.82
10.176	28.65
10.1862	29.27
10.1964	29.29
10.2065	30.09
10.2167	29.41
10.2269	28.72
10.237	29.43
10.2472	29.23
10.2573	29.56
10.2675	29.38
10.2777	30.13
10.2878	30.07
10.298	29.74
10.3082	28.88
10.3183	29.88
10.3285	29.85
10.3387	29.48
10.3488	29.91
10.359	29.83
10.3692	29.31
10.3793	30.26
10.3895	29.96
10.3996	30.15
10.4098	29.27
10.42	29.99
10.4301	29.82
10.4403	30.51
10.4505	30.50
10.4606	30.57
10.4708	31.21
10.481	31.05
10.4911	30.17
10.5013	30.64
10.5115	30.58
10.5216	29.77
10.5318	31.13
10.542	30.72
10.5521	30.24
10.5623	29.77
10.5724	30.47
10.5826	31.30
10.5928	31.20
10.6029	31.02
10.6131	30.16
10.6233	31.65
10.6334	31.49
10.6436	30.74
10.6538	30.32
10.6639	32.45
10.6741	31.17
10.6843	30.37
10.6944	31.48
10.7046	30.85
10.7147	30.10
10.7249	30.81
10.7351	31.36
10.7452	30.93
10.7554	31.99
10.7656	30.91
10.7757	31.80
10.7859	31.98
10.7961	30.42
10.8062	32.15
10.8164	31.65
10.8266	31.29
10.8367	31.74
10.8469	31.79
10.8571	31.95
10.8672	31.35
10.8774	32.20
10.8875	31.40
10.8977	32.33
10.9079	32.03
10.918	31.86
10.9282	32.23
10.9384	32.52
10.9485	31.63
10.9587	31.91
10.9689	31.92
10.979	31.23
10.9892	32.87
10.9994	31.99
11.0095	31.58
11.0197	33.37
11.0298	33.04
11.04	32.55
11.0502	33.10
11.0603	32.91
11.0705	32.10
11.0807	32.38
11.0908	33.08
11.101	32.52
11.1112	32.37
11.1213	33.01
11.1315	32.26
11.1417	33.01
11.1518	32.47
11.162	33.26
11.1722	32.88
11.1823	33.18
11.1925	33.00
11.2026	33.12
11.2128	32.82
11.223	33.05
11.2331	32.34
11.2433	32.49
11.2535	33.49
11.2636	33.55
11.2738	33.63
11.284	33.91
11.2941	33.17
11.3043	33.29
11.3145	33.70
11.3246	32.85
11.3348	32.76
11.3449	34.70
11.3551	33.74
11.3653	33.52
11.3754	33.37
11.3856	33.13
11.3958	33.93
11.4059	34.41
11.4161	33.64
11.4263	35.10
11.4364	34.18
11.4466	34.03
11.4568	34.59
11.4669	34.80
11.4771	34.06
11.4873	34.56
11.4974	33.59
11.5076	34.02
11.5177	34.79
11.5279	34.71
11.5381	34.12
11.5482	35.37
11.5584	35.26
11.5686	33.54
11.5787	35.04
11.5889	34.48
11.5991	34.16
11.6092	33.82
11.6194	34.93
11.6296	36.00
11.6397	34.74
11.6499	35.12
11.66	34.63
11.6702	34.15
11.6804	34.50
11.6905	34.77
11.7007	35.34
11.7109	34.78
11.721	35.09
11.7312	34.99
11.7414	34.91
11.7515	34.77
11.7617	35.73
11.7719	35.34
11.782	35.02
11.7922	35.35
11.8023	35.12
11.8125	35.09
11.8227	35.52
11.8328	36.57
11.843	36.15
11.8532	35.15
11.8633	36.42
11.8735	36.26
11.8837	35.49
11.8938	36.12
11.904	36.01
11.9142	36.78
11.9243	36.42
11.9345	36.09
11.9447	36.30
11.9548	36.30
11.965	36.75
11.9751	36.86
11.9853	36.30
11.9955	36.82
12.0056	36.34
12.0158	36.60
12.026	37.30
12.0361	36.24
12.0463	36.65
12.0565	36.12
12.0666	36.59
12.0768	37.16
12.087	38.05
12.0971	37.77
12.1073	37.45
12.1174	37.29
12.1276	36.02
12.1378	37.75
12.1479	37.30
12.1581	37.40
12.1683	37.95
12.1784	36.99
12.1886	37.35
12.1988	37.73
12.2089	37.74
12.2191	38.00
12.2293	37.35
12.2394	37.47
12.2496	37.99
12.2598	37.16
12.2699	38.05
12.2801	38.37
12.2902	38.60
12.3004	38.27
12.3106	38.74
12.3207	38.82
12.3309	38.68
12.3411	38.62
12.3512	38.37
12.3614	39.04
12.3716	38.60
12.3817	38.55
12.3919	38.88
12.4021	39.21
12.4122	39.55
12.4224	39.18
12.4325	38.93
12.4427	39.00
12.4529	38.08
12.463	40.02
12.4732	38.18
12.4834	39.38
12.4935	40.25
12.5037	40.15
12.5139	39.32
12.524	40.29
12.5342	39.91
12.5444	39.51
12.5545	39.61
12.5647	39.17
12.5749	40.17
12.585	40.33
12.5952	40.24
12.6053	41.11
12.6155	39.97
12.6257	39.93
12.6358	39.87
12.646	41.04
12.6562	40.55
12.6663	40.45
12.6765	39.38
12.6867	40.59
12.6968	40.45
12.707	40.29
12.7172	41.06
12.7273	40.25
12.7375	41.03
12.7476	42.02
12.7578	41.22
12.768	41.60
12.7781	41.18
12.7883	42.05
12.7985	40.94
12.8086	41.02
12.8188	41.64
12.829	41.96
12.8391	42.21
12.8493	41.60
12.8595	42.02
12.8696	41.06
12.8798	41.90
12.89	41.82
12.9001	41.66
12.9103	42.20
12.9204	42.17
12.9306	41.74
12.9408	41.74
12.9509	43.20
12.9611	42.51
12.9713	42.20
12.9814	43.16
12.9916	42.52
13.0018	43.08
13.0119	43.41
13.0221	43.63
13.0323	42.63
13.0424	43.46
13.0526	43.73
13.0627	42.96
13.0729	43.02
13.0831	43.22
13.0932	43.32
13.1034	43.68
13.1136	43.61
13.1237	44.11
13.1339	44.07
13.1441	44.66
13.1542	44.47
13.1644	44.22
13.1746	44.70
13.1847	44.16
13.1949	43.82
13.2051	44.16
13.2152	43.81
13.2254	44.18
13.2355	44.66
13.2457	45.19
13.2559	44.93
13.266	45.43
13.2762	44.19
13.2864	44.71
13.2965	45.07
13.3067	45.69
13.3169	45.15
13.327	45.98
13.3372	46.32
13.3474	45.26
13.3575	45.93
13.3677	46.77
13.3778	44.97
13.388	46.48
13.3982	45.96
13.4083	46.31
13.4185	45.84
13.4287	47.01
13.4388	47.24
13.449	46.72
13.4592	46.37
13.4693	47.76
13.4795	46.48
13.4897	47.43
13.4998	47.07
13.51	47.12
13.5201	47.59
13.5303	48.67
13.5405	46.92
13.5506	47.85
13.5608	48.13
13.571	48.18
13.5811	48.36
13.5913	48.95
13.6015	47.62
13.6116	48.30
13.6218	48.19
13.632	48.66
13.6421	48.65
13.6523	49.32
13.6625	48.41
13.6726	49.05
13.6828	48.96
13.6929	48.30
13.7031	48.77
13.7133	49.13
13.7234	48.37
13.7336	49.16
13.7438	50.19
13.7539	50.19
13.7641	48.24
13.7743	48.25
13.7844	48.97
13.7946	49.79
13.8048	50.14
13.8149	49.70
13.8251	51.27
13.8352	51.20
13.8454	49.85
13.8556	50.29
13.8657	50.85
13.8759	49.71
13.8861	51.12
13.8962	51.17
13.9064	51.11
13.9166	51.57
13.9267	51.54
13.9369	50.80
13.9471	51.93
13.9572	51.87
13.9674	51.26
13.9776	53.15
13.9877	51.45
13.9979	51.49
14.008	52.30
14.0182	52.05
14.0284	52.77
14.0385	53.16
14.0487	52.45
14.0589	53.24
14.069	53.99
14.0792	52.68
14.0894	54.04
14.0995	54.66
14.1097	53.51
14.1199	53.04
14.13	53.70
14.1402	54.34
14.1503	54.47
14.1605	54.24
14.1707	53.28
14.1808	54.85
14.191	53.63
14.2012	53.10
14.2113	55.61
14.2215	54.17
14.2317	54.59
14.2418	54.68
14.252	55.44
14.2622	55.15
14.2723	55.35
14.2825	54.59
14.2927	54.90
14.3028	55.17
14.313	55.38
14.3231	55.40
14.3333	56.54
14.3435	57.08
14.3536	55.54
14.3638	56.63
14.374	57.12
14.3841	55.09
14.3943	56.80
14.4045	57.07
14.4146	56.96
14.4248	57.14
14.435	58.63
14.4451	57.52
14.4553	56.12
14.4654	58.07
14.4756	56.81
14.4858	57.35
14.4959	58.60
14.5061	58.43
14.5163	57.62
14.5264	58.45
14.5366	58.01
14.5468	58.84
14.5569	59.05
14.5671	59.26
14.5773	58.93
14.5874	59.23
14.5976	60.45
14.6078	58.85
14.6179	60.01
14.6281	60.94
14.6382	60.66
14.6484	60.33
14.6586	59.91
14.6687	61.15
14.6789	59.97
14.6891	60.57
14.6992	61.45
14.7094	60.51
14.7196	61.75
14.7297	61.20
14.7399	61.88
14.7501	63.02
14.7602	61.48
14.7704	60.96
14.7805	61.82
14.7907	61.42
14.8009	61.90
14.811	60.99
14.8212	61.16
14.8314	62.23
14.8415	62.52
14.8517	63.46
14.8619	62.54
14.872	62.36
14.8822	62.76
14.8924	63.91
14.9025	63.84
14.9127	64.79
14.9229	64.28
14.933	63.65
14.9432	63.70
14.9533	64.82
14.9635	63.64
14.9737	65.33
14.9838	63.98
14.994	64.59
15.0042	63.89
15.0143	66.13
15.0245	66.17
15.0347	65.13
15.0448	66.07
15.055	65.81
15.0652	66.16
15.0753	65.86
15.0855	67.38
15.0956	67.12
15.1058	66.30
15.116	66.24
15.1261	66.51
15.1363	67.45
15.1465	66.85
15.1566	66.98
15.1668	68.35
15.177	67.10
15.1871	67.93
15.1973	68.60
15.2075	67.21
15.2176	68.55
15.2278	69.01
15.238	68.66
15.2481	67.76
15.2583	68.90
15.2684	69.90
15.2786	68.99
15.2888	68.86
15.2989	68.87
15.3091	70.34
15.3193	69.54
15.3294	69.38
15.3396	70.05
15.3498	70.62
15.3599	70.51
15.3701	70.38
15.3803	71.05
15.3904	70.27
15.4006	69.80
15.4107	71.60
15.4209	70.87
15.4311	71.60
15.4412	71.33
15.4514	73.09
15.4616	71.84
15.4717	71.13
15.4819	73.38
15.4921	71.98
15.5022	73.73
15.5124	72.50
15.5226	73.68
15.5327	73.37
15.5429	73.21
15.553	73.46
15.5632	74.54
15.5734	74.27
15.5835	73.43
15.5937	72.96
15.6039	75.21
15.614	73.80
15.6242	74.70
15.6344	76.52
15.6445	74.20
15.6547	73.65
15.6649	75.11
15.675	77.20
15.6852	76.82
15.6954	77.17
15.7055	76.95
15.7157	76.45
15.7258	76.51
15.736	76.82
15.7462	77.45
15.7563	76.43
15.7665	76.17
15.7767	78.68
15.7868	78.55
15.797	79.13
15.8072	79.55
15.8173	77.30
15.8275	78.55
15.8377	79.45
15.8478	78.62
15.858	79.54
15.8681	79.44
15.8783	79.15
15.8885	80.53
15.8986	80.26
15.9088	80.96
15.919	80.40
15.9291	80.25
15.9393	81.09
15.9495	81.84
15.9596	81.15
15.9698	82.02
15.98	81.13
15.9901	81.79
16.0003	81.05
16.0105	83.12
16.0206	82.77
16.0308	82.84
16.0409	82.18
16.0511	81.82
16.0613	82.70
16.0714	83.88
16.0816	82.45
16.0918	84.89
16.1019	83.51
16.1121	84.18
16.1223	85.10
16.1324	84.18
16.1426	84.66
16.1528	85.07
16.1629	84.54
16.1731	86.00
16.1832	85.38
16.1934	86.44
16.2036	85.50
16.2137	84.48
16.2239	86.63
16.2341	86.15
16.2442	85.80
16.2544	86.00
16.2646	88.34
16.2747	87.57
16.2849	86.66
16.2951	87.23
16.3052	87.85
16.3154	88.80
16.3256	88.99
16.3357	89.79
16.3459	88.89
16.356	90.54
16.3662	89.60
16.3764	89.93
16.3865	90.21
16.3967	90.68
16.4069	90.28
16.417	90.43
16.4272	91.51
16.4374	91.79
16.4475	92.46
16.4577	91.00
16.4679	92.59
16.478	91.57
16.4882	91.88
16.4983	92.69
16.5085	93.27
16.5187	91.80
16.5288	92.68
16.539	94.54
16.5492	93.25
16.5593	93.38
16.5695	94.87
16.5797	94.76
16.5898	93.44
16.6	94.86
16.6102	95.67
16.6203	94.47
16.6305	95.51
16.6407	95.54
16.6508	94.77
16.661	97.35
16.6711	96.13
16.6813	97.60
16.6915	97.83
16.7016	95.84
16.7118	97.76
16.722	96.84
16.7321	97.92
16.7423	96.65
16.7525	97.85
16.7626	97.19
16.7728	98.40
16.783	98.14
16.7931	98.49
16.8033	99.40
16.8134	102.04
16.8236	98.36
16.8338	99.90
16.8439	99.27
16.8541	100.68
16.8643	101.52
16.8744	99.04
16.8846	100.41
16.8948	100.36
16.9049	100.51
16.9151	101.10
16.9253	102.04
16.9354	102.65
16.9456	102.18
16.9558	103.51
16.9659	102.58
16.9761	103.26
16.9862	100.85
16.9964	104.48
17.0066	103.17
17.0167	102.64
17.0269	104.28
17.0371	104.21
17.0472	104.15
17.0574	105.48
17.0676	103.01
17.0777	104.94
17.0879	105.05
17.0981	104.32
17.1082	105.85
17.1184	106.50
17.1285	105.43
17.1387	104.64
17.1489	105.30
17.159	106.48
17.1692	106.28
17.1794	108.49
17.1895	106.32
17.1997	105.90
17.2099	109.40
17.22	108.36
17.2302	106.73
17.2404	108.66
17.2505	108.26
17.2607	107.81
17.2709	109.49
17.281	108.24
17.2912	110.05
17.3013	110.78
17.3115	108.64
17.3217	110.05
17.3318	111.58
17.342	111.65
17.3522	108.46
17.3623	111.34
17.3725	110.97
17.3827	111.96
17.3928	113.88
17.403	111.97
17.4132	113.56
17.4233	113.24
17.4335	112.70
17.4436	113.86
17.4538	113.84
17.464	115.36
17.4741	116.60
17.4843	115.78
17.4945	115.32
17.5046	115.61
17.5148	117.59
17.525	117.93
17.5351	117.45
17.5453	117.95
17.5555	119.26
17.5656	120.17
17.5758	119.65
17.5859	120.30
17.5961	120.14
17.6063	120.08
17.6164	119.45
17.6266	121.62
17.6368	122.40
17.6469	122.62
17.6571	121.23
17.6673	122.80
17.6774	122.71
17.6876	124.62
17.6978	126.45
17.7079	124.91
17.7181	126.22
17.7283	127.98
17.7384	126.02
17.7486	128.24
17.7587	129.62
17.7689	129.21
17.7791	129.97
17.7892	131.17
17.7994	131.26
17.8096	131.81
17.8197	133.73
17.8299	133.35
17.8401	134.51
17.8502	134.34
17.8604	136.96
17.8706	137.36
17.8807	136.82
17.8909	137.87
17.901	140.87
17.9112	139.54
17.9214	140.91
17.9315	141.99
17.9417	144.05
17.9519	143.47
17.962	146.89
17.9722	149.15
17.9824	147.63
17.9925	148.55
18.0027	150.41
18.0129	152.52
18.023	153.86
18.0332	154.45
18.0434	155.32
18.0535	157.93
18.0637	161.15
18.0738	160.45
18.084	163.49
18.0942	163.23
18.1043	166.66
18.1145	167.11
18.1247	169.87
18.1348	170.33
18.145	174.86
18.1552	177.93
18.1653	176.90
18.1755	179.68
18.1857	183.37
18.1958	182.85
18.206	185.35
18.2161	189.63
18.2263	190.62
18.2365	192.07
18.2466	194.29
18.2568	197.62
18.267	197.51
18.2771	203.24
18.2873	202.55
18.2975	203.06
18.3076	209.48
18.3178	210.77
18.328	210.93
18.3381	216.42
18.3483	215.26
18.3585	215.74
18.3686	220.90
18.3788	221.20
18.3889	221.60
18.3991	226.60
18.4093	226.32
18.4194	227.41
18.4296	232.30
18.4398	232.22
18.4499	231.18
18.4601	232.66
18.4703	236.38
18.4804	234.66
18.4906	239.95
18.5008	238.42
18.5109	235.89
18.5211	238.80
18.5312	239.16
18.5414	235.87
18.5516	240.48
18.5617	239.31
18.5719	235.72
18.5821	236.36
18.5922	236.54
18.6024	233.15
18.6126	234.98
18.6227	234.72
18.6329	229.56
18.6431	230.34
18.6532	229.24
18.6634	224.44
18.6736	223.15
18.6837	222.34
18.6939	217.66
18.704	217.43
18.7142	216.24
18.7244	212.99
18.7345	213.59
18.7447	209.86
18.7549	208.30
18.765	206.19
18.7752	203.21
18.7854	201.24
18.7955	200.76
18.8057	199.06
18.8159	195.93
18.826	195.02
18.8362	193.47
18.8463	190.74
18.8565	185.35
18.8667	186.22
18.8768	183.01
18.887	182.21
18.8972	181.31
18.9073	177.18
18.9175	176.95
18.9277	174.63
18.9378	171.98
18.948	171.50
18.9582	171.16
18.9683	167.00
18.9785	166.73
18.9887	166.56
18.9988	163.51
19.009	163.77
19.0191	161.74
19.0293	158.77
19.0395	159.80
19.0496	157.99
19.0598	156.38
19.07	153.61
19.0801	153.55
19.0903	153.15
19.1005	153.78
19.1106	152.20
19.1208	149.66
19.131	148.80
19.1411	148.23
19.1513	146.28
19.1614	146.38
19.1716	144.62
19.1818	144.96
19.1919	144.13
19.2021	143.40
19.2123	143.34
19.2224	143.12
19.2326	142.95
19.2428	140.92
19.2529	140.71
19.2631	140.29
19.2733	138.09
19.2834	138.97
19.2936	136.02
19.3038	136.25
19.3139	135.40
19.3241	137.34
19.3342	135.41
19.3444	136.98
19.3546	135.94
19.3647	132.29
19.3749	134.21
19.3851	133.36
19.3952	133.93
19.4054	133.34
19.4156	133.27
19.4257	132.18
19.4359	132.36
19.4461	133.27
19.4562	129.29
19.4664	131.88
19.4765	130.30
19.4867	130.40
19.4969	129.86
19.507	130.90
19.5172	129.68
19.5274	130.99
19.5375	128.02
19.5477	129.05
19.5579	130.13
19.568	128.68
19.5782	127.89
19.5884	128.12
19.5985	128.85
19.6087	128.02
19.6188	128.95
19.629	129.09
19.6392	128.81
19.6493	129.48
19.6595	128.02
19.6697	126.85
19.6798	128.21
19.69	129.72
19.7002	126.17
19.7103	126.81
19.7205	126.49
19.7307	126.80
19.7408	127.50
19.751	127.56
19.7612	129.37
19.7713	129.38
19.7815	128.93
19.7916	126.18
19.8018	127.78
19.812	125.62
19.8221	126.62
19.8323	127.77
19.8425	129.05
19.8526	126.59
19.8628	126.96
19.873	128.31
19.8831	125.78
19.8933	126.25
19.9035	128.60
19.9136	127.60
19.9238	128.31
19.9339	126.77
19.9441	127.18
19.9543	128.59
19.9644	127.04
19.9746	126.05
19.9848	129.73
19.9949	129.09
20.0051	127.71
20.0153	127.52
20.0254	129.99
20.0356	128.18
20.0458	129.35
20.0559	127.37
20.0661	128.59
20.0763	128.26
20.0864	130.04
20.0966	128.87
20.1067	130.34
20.1169	130.46
20.1271	129.64
20.1372	130.96
20.1474	131.60
20.1576	130.70
20.1677	133.07
20.1779	130.92
20.1881	131.84
20.1982	132.26
20.2084	132.58
20.2186	131.09
20.2287	133.56
20.2389	134.70
20.249	131.20
20.2592	133.16
20.2694	132.80
20.2795	132.08
20.2897	132.50
20.2999	133.15
20.31	132.76
20.3202	134.70
20.3304	133.86
20.3405	132.10
20.3507	134.86
20.3609	135.51
20.371	132.96
20.3812	132.58
20.3914	135.53
20.4015	134.15
20.4117	134.79
20.4218	135.48
20.432	132.27
20.4422	133.40
20.4523	133.84
20.4625	133.30
20.4727	134.95
20.4828	134.18
20.493	132.96
20.5032	134.88
20.5133	132.92
20.5235	132.93
20.5337	132.85
20.5438	133.55
20.554	133.37
20.5641	132.61
20.5743	132.61
20.5845	130.54
20.5946	131.30
20.6048	130.91
20.615	130.24
20.6251	130.95
20.6353	129.59
20.6455	128.09
20.6556	130.66
20.6658	130.30
20.676	128.12
20.6861	130.63
20.6963	128.49
20.7065	127.16
20.7166	127.57
20.7268	126.15
20.7369	125.84
20.7471	127.21
20.7573	125.82
20.7674	125.10
20.7776	124.45
20.7878	123.92
20.7979	123.84
20.8081	123.12
20.8183	123.43
20.8284	122.47
20.8386	121.93
20.8488	122.29
20.8589	120.50
20.8691	121.18
20.8792	121.02
20.8894	119.66
20.8996	120.04
20.9097	119.39
20.9199	120.46
20.9301	119.29
20.9402	117.74
20.9504	116.20
20.9606	117.32
20.9707	118.13
20.9809	117.01
20.9911	116.81
21.0012	119.07
21.0114	116.52
21.0216	115.67
21.0317	115.87
21.0419	115.76
21.052	115.05
21.0622	114.76
21.0724	114.84
21.0825	115.30
21.0927	113.91
21.1029	113.65
21.113	113.54
21.1232	113.85
21.1334	113.15
21.1435	112.74
21.1537	112.52
21.1639	112.11
21.174	113.54
21.1842	113.10
21.1943	113.07
21.2045	112.27
21.2147	111.90
21.2248	111.38
21.235	111.83
21.2452	113.82
21.2553	112.86
21.2655	113.88
21.2757	111.57
21.2858	111.07
21.296	113.50
21.3062	113.08
21.3163	110.99
21.3265	113.55
21.3366	112.94
21.3468	113.39
21.357	112.26
21.3671	112.15
21.3773	112.05
21.3875	112.15
21.3976	114.49
21.4078	114.62
21.418	113.24
21.4281	114.68
21.4383	114.96
21.4485	114.70
21.4586	113.98
21.4688	113.34
21.479	115.41
21.4891	114.63
21.4993	113.95
21.5094	116.70
21.5196	117.59
21.5298	115.76
21.5399	117.59
21.5501	117.52
21.5603	117.02
21.5704	118.79
21.5806	119.85
21.5908	119.09
21.6009	121.75
21.6111	121.37
21.6213	120.74
21.6314	121.76
21.6416	124.18
21.6517	122.23
21.6619	124.08
21.6721	124.54
21.6822	126.24
21.6924	127.13
21.7026	126.93
21.7127	128.52
21.7229	130.68
21.7331	128.94
21.7432	130.27
21.7534	132.42
21.7636	132.70
21.7737	132.85
21.7839	135.46
21.7941	135.45
21.8042	134.38
21.8144	137.56
21.8245	138.30
21.8347	138.09
21.8449	138.07
21.855	137.65
21.8652	138.04
21.8754	139.39
21.8855	139.41
21.8957	139.04
21.9059	140.60
21.916	141.03
21.9262	142.24
21.9364	142.68
21.9465	140.82
21.9567	143.29
21.9668	143.68
21.977	144.57
21.9872	142.43
21.9973	142.64
22.0075	146.24
22.0177	144.21
22.0278	145.98
22.038	145.27
22.0482	142.20
22.0583	148.37
22.0685	147.51
22.0787	146.60
22.0888	146.59
22.099	148.37
22.1092	148.77
22.1193	148.82
22.1295	149.43
22.1396	149.73
22.1498	149.25
22.16	151.16
22.1701	147.83
22.1803	150.13
22.1905	151.59
22.2006	150.84
22.2108	151.47
22.221	151.55
22.2311	149.79
22.2413	153.38
22.2515	151.45
22.2616	151.20
22.2718	150.91
22.2819	153.13
22.2921	150.97
22.3023	151.09
22.3124	150.98
22.3226	150.74
22.3328	151.32
22.3429	150.86
22.3531	148.84
22.3633	152.05
22.3734	151.32
22.3836	148.71
22.3938	149.76
22.4039	149.90
22.4141	148.49
22.4243	148.66
22.4344	148.37
22.4446	146.91
22.4547	147.06
22.4649	145.52
22.4751	145.23
22.4852	146.96
22.4954	146.77
22.5056	142.62
22.5157	144.24
22.5259	143.53
22.5361	143.78
22.5462	140.65
22.5564	140.77
22.5666	137.82
22.5767	138.49
22.5869	139.37
22.597	137.09
22.6072	138.57
22.6174	137.06
22.6275	134.82
22.6377	134.65
22.6479	134.84
22.658	134.05
22.6682	133.24
22.6784	134.20
22.6885	132.06
22.6987	131.12
22.7089	129.90
22.719	129.19
22.7292	129.25
22.7394	127.38
22.7495	126.64
22.7597	127.67
22.7698	125.82
22.78	122.73
22.7902	124.15
22.8003	124.56
22.8105	121.12
22.8207	122.84
22.8308	120.01
22.841	119.60
22.8512	119.95
22.8613	119.12
22.8715	118.46
22.8817	118.98
22.8918	119.22
22.902	114.76
22.9121	114.01
22.9223	113.91
22.9325	111.18
22.9426	112.40
22.9528	114.05
22.963	110.38
22.9731	112.09
22.9833	111.41
22.9935	108.86
23.0036	109.16
23.0138	107.89
23.024	108.23
23.0341	107.17
23.0443	107.24
23.0545	105.30
23.0646	103.77
23.0748	105.34
23.0849	104.12
23.0951	103.77
23.1053	101.62
23.1154	101.69
23.1256	101.51
23.1358	101.52
23.1459	99.87
23.1561	99.79
23.1663	99.63
23.1764	98.32
23.1866	99.37
23.1968	98.16
23.2069	97.00
23.2171	95.99
23.2272	96.67
23.2374	95.84
23.2476	94.79
23.2577	95.16
23.2679	93.77
23.2781	93.15
23.2882	92.27
23.2984	92.37
23.3086	91.38
23.3187	91.41
23.3289	90.07
23.3391	90.02
23.3492	89.19
23.3594	89.00
23.3695	89.14
23.3797	89.89
23.3899	87.91
23.4	90.32
23.4102	86.95
23.4204	87.57
23.4305	86.82
23.4407	86.90
23.4509	84.95
23.461	83.98
23.4712	85.42
23.4814	84.24
23.4915	84.29
23.5017	83.18
23.5119	81.70
23.522	82.68
23.5322	82.02
23.5423	80.99
23.5525	82.24
23.5627	80.83
23.5728	80.28
23.583	80.51
23.5932	80.54
23.6033	81.37
23.6135	79.37
23.6237	79.91
23.6338	78.43
23.644	79.21
23.6542	79.13
23.6643	78.76
23.6745	78.27
23.6846	77.68
23.6948	77.23
23.705	76.80
23.7151	75.83
23.7253	77.37
23.7355	75.48
23.7456	76.65
23.7558	74.93
23.766	75.37
23.7761	74.69
23.7863	75.13
23.7965	75.09
23.8066	74.49
23.8168	73.78
23.827	73.92
23.8371	73.38
23.8473	73.25
23.8574	72.98
23.8676	72.57
23.8778	73.10
23.8879	72.15
23.8981	71.55
23.9083	70.85
23.9184	72.23
23.9286	71.70
23.9388	70.62
23.9489	71.82
23.9591	69.93
23.9693	69.84
23.9794	70.37
23.9896	70.21
23.9997	68.26
24.0099	71.15
24.0201	68.97
24.0302	68.76
24.0404	68.22
24.0506	67.90
24.0607	68.29
24.0709	69.03
24.0811	68.33
24.0912	68.10
24.1014	68.30
24.1116	67.69
24.1217	67.33
24.1319	67.08
24.1421	67.46
24.1522	66.79
24.1624	65.90
24.1725	67.33
24.1827	67.55
24.1929	66.53
24.203	66.40
24.2132	66.81
24.2234	65.21
24.2335	65.25
24.2437	64.93
24.2539	65.05
24.264	66.00
24.2742	64.74
24.2844	65.09
24.2945	65.73
24.3047	64.70
24.3148	64.51
24.325	64.39
24.3352	64.12
24.3453	62.76
24.3555	64.05
24.3657	63.45
24.3758	64.77
24.386	63.18
24.3962	63.99
24.4063	63.46
24.4165	63.47
24.4267	63.54
24.4368	62.10
24.447	62.60
24.4572	62.74
24.4673	62.31
24.4775	62.18
24.4876	61.68
24.4978	62.30
24.508	61.95
24.5181	62.09
24.5283	61.92
24.5385	61.68
24.5486	60.59
24.5588	60.68
24.569	61.02
24.5791	61.40
24.5893	61.24
24.5995	62.42
24.6096	61.03
24.6198	60.94
24.6299	60.51
24.6401	60.92
24.6503	59.73
24.6604	60.18
24.6706	60.55
24.6808	60.82
24.6909	60.38
24.7011	59.35
24.7113	60.78
24.7214	60.69
24.7316	59.54
24.7418	60.70
24.7519	59.09
24.7621	59.59
24.7723	59.82
24.7824	59.37
24.7926	60.70
24.8027	59.99
24.8129	59.28
24.8231	60.37
24.8332	58.84
24.8434	58.72
24.8536	57.74
24.8637	58.93
24.8739	58.23
24.8841	58.58
24.8942	58.46
24.9044	58.58
24.9146	57.84
24.9247	58.07
24.9349	57.71
24.945	57.68
24.9552	58.28
24.9654	59.19
24.9755	57.02
24.9857	57.76
24.9959	57.65
25.006	57.96
25.0162	57.04
25.0264	56.68
25.0365	57.07
25.0467	57.28
25.0569	58.57
25.067	57.31
25.0772	58.05
25.0874	56.32
25.0975	56.66
25.1077	56.89
25.1178	57.76
25.128	57.03
25.1382	55.91
25.1483	56.68
25.1585	55.71
25.1687	56.04
25.1788	56.51
25.189	56.70
25.1992	57.35
25.2093	55.48
25.2195	56.27
25.2297	56.26
25.2398	56.26
25.25	56.09
25.2601	56.32
25.2703	55.74
25.2805	55.66
25.2906	56.70
25.3008	56.83
25.311	55.22
25.3211	56.99
25.3313	56.63
25.3415	55.09
25.3516	56.35
25.3618	55.58
25.372	55.64
25.3821	55.91
25.3923	55.24
25.4024	55.84
25.4126	55.28
25.4228	55.08
25.4329	54.33
25.4431	55.29
25.4533	55.23
25.4634	55.07
25.4736	54.95
25.4838	55.95
25.4939	54.59
25.5041	54.71
25.5143	54.13
25.5244	54.55
25.5346	54.64
25.5448	53.73
25.5549	54.10
25.5651	55.00
25.5752	54.96
25.5854	54.88
25.5956	53.16
25.6057	54.46
25.6159	54.60
25.6261	54.55
25.6362	53.74
25.6464	54.01
25.6566	55.26
25.6667	53.66
25.6769	53.16
25.6871	53.80
25.6972	54.15
25.7074	54.27
25.7175	53.74
25.7277	54.04
25.7379	52.12
25.748	52.90
25.7582	53.66
25.7684	53.04
25.7785	53.68
25.7887	52.90
25.7989	53.27
25.809	52.89
25.8192	53.20
25.8294	53.76
25.8395	53.65
25.8497	53.50
25.8599	53.41
25.87	53.31
25.8802	52.57
25.8903	52.88
25.9005	53.18
25.9107	53.10
25.9208	51.41
25.931	53.09
25.9412	51.65
25.9513	52.52
25.9615	51.88
25.9717	52.47
25.9818	52.35
25.992	51.37
26.0022	52.67
26.0123	52.05
26.0225	52.70
26.0326	50.60
26.0428	50.89
26.053	52.35
26.0631	52.04
26.0733	51.46
26.0835	51.42
26.0936	52.78
26.1038	50.96
26.114	50.66
26.1241	51.50
26.1343	51.45
26.1445	50.71
26.1546	51.38
26.1648	50.99
26.175	51.30
26.1851	49.98
26.1953	50.57
26.2054	50.68
26.2156	50.62
26.2258	51.84
26.2359	50.56
26.2461	51.34
26.2563	51.10
26.2664	51.40
26.2766	50.57
26.2868	51.21
26.2969	50.09
26.3071	51.38
26.3173	51.21
26.3274	51.63
26.3376	50.35
26.3477	50.41
26.3579	50.18
26.3681	50.26
26.3782	50.63
26.3884	50.59
26.3986	50.41
26.4087	50.40
26.4189	50.93
26.4291	50.65
26.4392	49.38
26.4494	50.36
26.4596	50.28
26.4697	49.74
26.4799	49.45
26.4901	49.70
26.5002	49.85
26.5104	50.31
26.5205	49.99
26.5307	49.99
26.5409	49.09
26.551	50.63
26.5612	49.87
26.5714	50.24
26.5815	49.89
26.5917	49.40
26.6019	49.61
26.612	49.38
26.6222	50.28
26.6324	49.37
26.6425	48.50
26.6527	48.29
26.6628	49.57
26.673	49.09
26.6832	49.37
26.6933	49.40
26.7035	50.08
26.7137	48.95
26.7238	49.25
26.734	49.27
26.7442	48.93
26.7543	49.49
26.7645	49.66
26.7747	48.34
26.7848	48.77
26.795	49.79
26.8052	48.79
26.8153	48.98
26.8255	49.11
26.8356	49.84
26.8458	48.87
26.856	47.77
26.8661	48.73
26.8763	48.45
26.8865	48.65
26.8966	49.60
26.9068	47.82
26.917	49.66
26.9271	48.36
26.9373	48.05
26.9475	48.66
26.9576	48.61
26.9678	49.28
26.9779	48.93
26.9881	49.01
26.9983	48.71
27.0084	49.32
27.0186	48.16
27.0288	47.87
27.0389	47.88
27.0491	48.71
27.0593	47.21
27.0694	47.81
27.0796	48.28
27.0898	48.84
27.0999	48.82
27.1101	48.98
27.1202	48.04
27.1304	48.91
27.1406	48.51
27.1507	49.01
27.1609	48.54
27.1711	48.76
27.1812	48.22
27.1914	47.86
27.2016	48.41
27.2117	48.51
27.2219	49.46
27.2321	48.43
27.2422	48.95
27.2524	49.01
27.2626	48.52
27.2727	47.70
27.2829	48.43
27.293	48.53
27.3032	48.27
27.3134	48.88
27.3235	48.72
27.3337	49.62
27.3439	47.95
27.354	49.83
27.3642	48.42
27.3744	48.24
27.3845	49.81
27.3947	48.95
27.4049	48.68
27.415	49.10
27.4252	49.48
27.4353	49.74
27.4455	48.48
27.4557	49.96
27.4658	48.95
27.476	49.87
27.4862	49.76
27.4963	50.10
27.5065	49.96
27.5167	49.14
27.5268	49.88
27.537	49.62
27.5472	50.12
27.5573	49.75
27.5675	50.66
27.5777	50.98
27.5878	50.27
27.598	51.06
27.6081	51.07
27.6183	51.35
27.6285	52.13
27.6386	51.34
27.6488	51.27
27.659	51.25
27.6691	52.02
27.6793	51.55
27.6895	51.85
27.6996	52.58
27.7098	51.83
27.72	52.21
27.7301	52.53
27.7403	52.18
27.7504	52.74
27.7606	53.41
27.7708	53.63
27.7809	53.60
27.7911	53.59
27.8013	54.58
27.8114	54.46
27.8216	53.71
27.8318	54.19
27.8419	54.95
27.8521	55.05
27.8623	55.13
27.8724	55.35
27.8826	55.34
27.8928	55.99
27.9029	56.30
27.9131	56.74
27.9232	58.11
27.9334	57.02
27.9436	58.06
27.9537	56.66
27.9639	57.01
27.9741	57.74
27.9842	57.38
27.9944	58.43
28.0046	57.21
28.0147	59.01
28.0249	58.88
28.0351	59.37
28.0452	59.34
28.0554	59.49
28.0655	59.48
28.0757	59.02
28.0859	60.79
28.096	60.45
28.1062	60.52
28.1164	62.45
28.1265	60.20
28.1367	61.45
28.1469	61.62
28.157	60.20
28.1672	62.20
28.1774	62.19
28.1875	62.06
28.1977	61.54
28.2079	63.73
28.218	62.18
28.2282	62.71
28.2383	64.05
28.2485	62.90
28.2587	62.94
28.2688	64.32
28.279	64.55
28.2892	64.28
28.2993	64.60
28.3095	64.38
28.3197	64.57
28.3298	63.54
28.34	64.18
28.3502	63.53
28.3603	63.39
28.3705	64.04
28.3806	64.01
28.3908	64.12
28.401	64.04
28.4111	63.13
28.4213	64.38
28.4315	65.17
28.4416	63.79
28.4518	64.49
28.462	63.69
28.4721	63.73
28.4823	63.78
28.4925	63.17
28.5026	62.50
28.5128	64.93
28.523	62.50
28.5331	62.44
28.5433	62.61
28.5534	61.62
28.5636	62.07
28.5738	62.46
28.5839	61.90
28.5941	61.79
28.6043	62.16
28.6144	61.13
28.6246	61.21
28.6348	60.70
28.6449	59.76
28.6551	60.31
28.6653	60.38
28.6754	59.36
28.6856	59.67
28.6957	60.41
28.7059	58.65
28.7161	59.12
28.7262	58.76
28.7364	58.29
28.7466	57.57
28.7567	58.34
28.7669	57.51
28.7771	57.35
28.7872	56.53
28.7974	56.26
28.8076	58.05
28.8177	57.22
28.8279	56.13
28.8381	55.54
28.8482	56.03
28.8584	56.21
28.8685	55.99
28.8787	55.30
28.8889	54.18
28.899	54.98
28.9092	55.26
28.9194	55.71
28.9295	54.12
28.9397	54.33
28.9499	52.81
28.96	53.02
28.9702	53.45
28.9804	52.27
28.9905	52.75
29.0007	52.54
29.0108	52.24
29.021	52.06
29.0312	53.21
29.0413	50.94
29.0515	52.12
29.0617	50.94
29.0718	51.24
29.082	50.37
29.0922	50.74
29.1023	50.33
29.1125	50.20
29.1227	50.06
29.1328	49.71
29.143	50.55
29.1531	49.34
29.1633	48.89
29.1735	48.84
29.1836	49.45
29.1938	48.40
29.204	49.24
29.2141	48.24
29.2243	47.91
29.2345	48.49
29.2446	48.91
29.2548	47.62
29.265	47.91
29.2751	46.92
29.2853	47.35
29.2955	49.05
29.3056	47.53
29.3158	48.23
29.3259	46.84
29.3361	46.82
29.3463	46.90
29.3564	46.66
29.3666	46.77
29.3768	46.31
29.3869	47.59
29.3971	46.65
29.4073	47.07
29.4174	47.52
29.4276	45.98
29.4378	45.34
29.4479	46.36
29.4581	45.50
29.4682	46.14
29.4784	45.43
29.4886	44.88
29.4987	45.34
29.5089	46.08
29.5191	44.88
29.5292	45.28
29.5394	44.92
29.5496	44.78
29.5597	44.37
29.5699	44.49
29.5801	45.48
29.5902	43.59
29.6004	44.26
29.6106	45.19
29.6207	45.01
29.6309	44.71
29.641	43.91
29.6512	44.55
29.6614	45.26
29.6715	43.98
29.6817	44.26
29.6919	44.15
29.702	44.02
29.7122	44.04
29.7224	44.29
29.7325	45.09
29.7427	43.65
29.7529	43.70
29.763	43.45
29.7732	42.51
29.7833	43.02
29.7935	44.33
29.8037	42.60
29.8138	43.02
29.824	42.62
29.8342	42.35
29.8443	43.01
29.8545	43.57
29.8647	43.28
29.8748	41.84
29.885	43.60
29.8952	43.29
29.9053	43.05
29.9155	43.85
29.9257	42.66
29.9358	42.77
29.946	42.10
29.9561	42.00
29.9663	41.63
29.9765	42.48
29.9866	42.04
29.9968	42.02
30.007	42.23
30.0171	41.80
30.0273	41.51
30.0375	42.59
30.0476	42.35
30.0578	41.24
30.068	41.35
30.0781	41.27
30.0883	41.36
30.0984	40.74
30.1086	39.76
30.1188	40.92
30.1289	41.11
30.1391	40.95
30.1493	41.49
30.1594	40.01
30.1696	41.12
30.1798	40.19
30.1899	40.96
30.2001	39.70
30.2103	40.03
30.2204	39.94
30.2306	39.19
30.2408	40.15
30.2509	39.12
30.2611	40.09
30.2712	39.72
30.2814	39.42
30.2916	39.16
30.3017	38.91
30.3119	39.43
30.3221	38.15
30.3322	38.27
30.3424	38.84
30.3526	38.67
30.3627	37.85
30.3729	38.62
30.3831	37.96
30.3932	36.88
30.4034	38.77
30.4135	37.79
30.4237	37.54
30.4339	38.26
30.444	38.02
30.4542	36.59
30.4644	38.21
30.4745	37.21
30.4847	37.70
30.4949	37.13
30.505	37.44
30.5152	36.88
30.5254	36.95
30.5355	36.95
30.5457	37.81
30.5559	37.25
30.566	36.78
30.5762	37.21
30.5863	36.41
30.5965	37.15
30.6067	37.00
30.6168	36.83
30.627	36.29
30.6372	36.74
30.6473	36.34
30.6575	35.74
30.6677	35.88
30.6778	36.15
30.688	35.72
30.6982	36.21
30.7083	35.98
30.7185	34.55
30.7286	35.35
30.7388	36.43
30.749	34.66
30.7591	35.60
30.7693	35.13
30.7795	35.09
30.7896	36.65
30.7998	35.23
30.81	35.60
30.8201	35.59
30.8303	34.92
30.8405	35.52
30.8506	35.27
30.8608	35.66
30.871	35.23
30.8811	33.78
30.8913	35.33
30.9014	34.58
30.9116	33.97
30.9218	35.70
30.9319	34.46
30.9421	35.35
30.9523	35.11
30.9624	34.65
30.9726	34.70
30.9828	34.76
30.9929	34.70
31.0031	34.28
31.0133	34.41
31.0234	34.87
31.0336	34.24
31.0437	34.27
31.0539	33.79
31.0641	34.68
31.0742	34.91
31.0844	33.95
31.0946	34.21
31.1047	34.00
31.1149	34.09
31.1251	34.32
31.1352	34.26
31.1454	33.69
31.1556	34.40
31.1657	34.52
31.1759	32.93
31.186	34.04
31.1962	32.64
31.2064	34.30
31.2165	33.60
31.2267	33.51
31.2369	33.51
31.247	33.40
31.2572	34.48
31.2674	33.41
31.2775	34.38
31.2877	34.52
31.2979	34.24
31.308	33.87
31.3182	34.48
31.3284	33.66
31.3385	33.24
31.3487	33.43
31.3588	33.74
31.369	33.38
31.3792	33.08
31.3893	33.67
31.3995	32.45
31.4097	34.09
31.4198	33.14
31.43	32.63
31.4402	33.17
31.4503	32.79
31.4605	33.10
31.4707	33.82
31.4808	33.60
31.491	33.18
31.5011	33.20
31.5113	32.95
31.5215	33.02
31.5316	33.90
31.5418	33.70
31.552	33.03
31.5621	32.76
31.5723	32.53
31.5825	32.96
31.5926	32.62
31.6028	33.37
31.613	32.54
31.6231	32.76
31.6333	32.84
31.6435	32.90
31.6536	32.95
31.6638	32.71
31.6739	33.10
31.6841	32.54
31.6943	32.41
31.7044	33.09
31.7146	32.95
31.7248	32.21
31.7349	33.12
31.7451	32.76
31.7553	32.90
31.7654	32.62
31.7756	32.60
31.7858	32.84
31.7959	32.98
31.8061	32.94
31.8162	32.37
31.8264	32.52
31.8366	32.53
31.8467	33.07
31.8569	32.89
31.8671	33.61
31.8772	32.04
31.8874	32.27
31.8976	33.31
31.9077	32.15
31.9179	33.04
31.9281	33.08
31.9382	32.49
31.9484	32.19
31.9586	33.43
31.9687	31.87
31.9789	32.13
31.989	32.98
31.9992	32.76
32.0094	31.96
32.0195	32.65
32.0297	32.78
32.0399	32.40
32.05	32.27
32.0602	31.13
32.0704	31.85
32.0805	33.10
32.0907	32.34
32.1009	33.18
32.111	33.13
32.1212	32.09
32.1313	34.29
32.1415	33.47
32.1517	32.62
32.1618	32.43
32.172	32.60
32.1822	32.52
32.1923	31.87
32.2025	33.24
32.2127	32.15
32.2228	32.58
32.233	32.34
32.2432	31.84
32.2533	32.23
32.2635	32.90
32.2737	31.84
32.2838	32.52
32.294	32.10
32.3041	32.57
32.3143	31.99
32.3245	32.30
32.3346	31.98
32.3448	32.54
32.355	32.55
32.3651	32.31
32.3753	30.93
32.3855	31.70
32.3956	32.09
32.4058	31.85
32.416	32.38
32.4261	31.79
32.4363	31.72
32.4464	32.15
32.4566	30.93
32.4668	31.99
32.4769	32.41
32.4871	32.46
32.4973	32.45
32.5074	32.05
32.5176	31.87
32.5278	32.34
32.5379	32.75
32.5481	32.04
32.5583	31.79
32.5684	32.44
32.5786	32.30
32.5888	32.85
32.5989	31.95
32.6091	31.78
32.6192	32.04
32.6294	32.41
32.6396	32.16
32.6497	31.45
32.6599	32.50
32.6701	31.85
32.6802	32.60
32.6904	31.89
32.7006	32.01
32.7107	32.36
32.7209	32.30
32.7311	32.68
32.7412	32.74
32.7514	32.01
32.7615	32.70
32.7717	32.47
32.7819	32.13
32.792	32.25
32.8022	31.89
32.8124	32.64
32.8225	31.71
32.8327	32.32
32.8429	32.66
32.853	31.28
32.8632	32.05
32.8734	32.58
32.8835	32.27
32.8937	32.46
32.9039	32.95
32.914	32.90
32.9242	33.10
32.9343	32.32
32.9445	32.48
32.9547	31.95
32.9648	31.81
32.975	32.67
32.9852	33.91
32.9953	32.61
33.0055	32.08
33.0157	33.74
33.0258	33.21
33.036	32.49
33.0462	32.52
33.0563	33.00
33.0665	32.63
33.0766	32.27
33.0868	33.05
33.097	33.25
33.1071	34.18
33.1173	33.65
33.1275	33.10
33.1376	33.17
33.1478	32.66
33.158	33.14
33.1681	34.26
33.1783	33.72
33.1885	33.11
33.1986	33.79
33.2088	33.13
33.2189	33.46
33.2291	33.54
33.2393	34.02
33.2494	32.46
33.2596	33.62
33.2698	32.49
33.2799	33.64
33.2901	33.76
33.3003	33.50
33.3104	33.65
33.3206	33.41
33.3308	33.50
33.3409	33.53
33.3511	32.87
33.3613	33.35
33.3714	33.72
33.3816	33.88
33.3917	33.39
33.4019	33.05
33.4121	33.12
33.4222	32.65
33.4324	32.80
33.4426	32.77
33.4527	32.58
33.4629	32.73
33.4731	33.63
33.4832	32.66
33.4934	32.70
33.5036	32.84
33.5137	32.03
33.5239	32.06
33.534	31.95
33.5442	31.90
33.5544	31.38
33.5645	31.86
33.5747	31.18
33.5849	32.06
33.595	30.96
33.6052	32.02
33.6154	32.10
33.6255	31.05
33.6357	30.52
33.6459	31.29
33.656	31.64
33.6662	31.56
33.6764	30.43
33.6865	30.90
33.6967	30.88
33.7068	30.26
33.717	30.71
33.7272	29.83
33.7373	29.76
33.7475	30.20
33.7577	30.55
33.7678	30.39
33.778	29.84
33.7882	29.55
33.7983	29.94
33.8085	29.54
33.8187	29.21
33.8288	29.55
33.839	30.10
33.8491	29.70
33.8593	29.16
33.8695	29.36
33.8796	28.84
33.8898	29.31
33.9	29.07
33.9101	29.06
33.9203	28.58
33.9305	27.99
33.9406	28.37
33.9508	28.87
33.961	29.12
33.9711	27.67
33.9813	28.07
33.9915	27.93
34.0016	28.37
34.0118	28.35
34.0219	27.82
34.0321	28.01
34.0423	27.74
34.0524	27.88
34.0626	27.42
34.0728	27.99
34.0829	28.67
34.0931	27.86
34.1033	28.12
34.1134	26.96
34.1236	27.66
34.1338	28.10
34.1439	27.46
34.1541	28.16
34.1642	27.38
34.1744	28.07
34.1846	27.72
34.1947	27.44
34.2049	27.60
34.2151	27.33
34.2252	27.55
34.2354	26.95
34.2456	26.81
34.2557	27.58
34.2659	27.21
34.2761	27.71
34.2862	26.88
34.2964	26.71
34.3066	26.90
34.3167	26.21
34.3269	26.74
34.337	27.00
34.3472	26.54
34.3574	26.73
34.3675	27.62
34.3777	26.49
34.3879	26.64
34.398	26.56
34.4082	27.01
34.4184	26.01
34.4285	27.04
34.4387	26.62
34.4489	26.73
34.459	26.67
34.4692	26.18
34.4793	26.29
34.4895	26.68
34.4997	26.80
34.5098	26.70
34.52	26.15
34.5302	26.68
34.5403	25.90
34.5505	26.75
34.5607	25.99
34.5708	26.84
34.581	26.17
34.5912	26.55
34.6013	26.08
34.6115	25.90
34.6217	26.88
34.6318	26.16
34.642	26.53
34.6521	25.77
34.6623	26.14
34.6725	26.43
34.6826	25.98
34.6928	26.19
34.703	25.60
34.7131	25.00
34.7233	25.50
34.7335	26.59
34.7436	26.43
34.7538	26.00
34.764	26.15
34.7741	25.68
34.7843	26.01
34.7944	25.74
34.8046	26.23
34.8148	25.70
34.8249	26.05
34.8351	26.52
34.8453	25.65
34.8554	26.12
34.8656	25.51
34.8758	25.46
34.8859	25.87
34.8961	26.04
34.9063	25.71
34.9164	25.82
34.9266	25.58
34.9367	26.16
34.9469	25.45
34.9571	26.32
34.9672	25.45
34.9774	25.77
34.9876	25.01
34.9977	25.43
35.0079	25.57
35.0181	25.99
35.0282	25.85
35.0384	25.18
35.0486	25.41
35.0587	25.34
35.0689	25.79
35.0791	25.15
35.0892	26.37
35.0994	24.60
35.1095	25.29
35.1197	25.30
35.1299	25.59
35.14	24.52
35.1502	25.72
35.1604	24.98
35.1705	26.26
35.1807	25.35
35.1909	25.79
35.201	25.52
35.2112	26.19
35.2214	25.41
35.2315	26.69
35.2417	25.05
35.2518	25.68
35.262	24.68
35.2722	25.06
35.2823	24.94
35.2925	25.34
35.3027	25.97
35.3128	24.82
35.323	25.07
35.3332	24.98
35.3433	25.83
35.3535	25.38
35.3637	24.82
35.3738	25.51
35.384	25.89
35.3942	25.55
35.4043	25.11
35.4145	24.74
35.4246	25.45
35.4348	25.55
35.445	25.15
35.4551	24.91
35.4653	24.78
35.4755	25.40
35.4856	25.16
35.4958	25.15
35.506	24.84
35.5161	25.04
35.5263	25.63
35.5365	24.94
35.5466	25.08
35.5568	24.92
35.5669	24.73
35.5771	24.31
35.5873	24.96
35.5974	24.91
35.6076	24.93
35.6178	24.58
35.6279	24.26
35.6381	24.70
35.6483	25.13
35.6584	25.27
35.6686	24.93
35.6788	25.03
35.6889	25.43
35.6991	24.80
35.7093	25.08
35.7194	25.05
35.7296	24.71
35.7397	23.78
35.7499	24.66
35.7601	24.60
35.7702	24.49
35.7804	25.06
35.7906	24.51
35.8007	24.40
35.8109	24.84
35.8211	24.85
35.8312	24.70
35.8414	24.55
35.8516	24.76
35.8617	25.26
35.8719	24.56
35.882	24.85
35.8922	24.48
35.9024	24.68
35.9125	23.84
35.9227	24.91
35.9329	25.02
35.943	25.05
35.9532	25.09
35.9634	24.52
35.9735	25.38
35.9837	25.79
35.9939	24.90
36.004	24.43
36.0142	25.01
36.0244	24.58
36.0345	24.37
36.0447	24.12
36.0548	25.33
36.065	24.38
36.0752	24.43
36.0853	25.68
36.0955	24.32
36.1057	24.48
36.1158	24.40
36.126	24.47
36.1362	24.81
36.1463	24.18
36.1565	24.60
36.1667	24.07
36.1768	25.49
36.187	25.28
36.1971	25.01
36.2073	24.88
36.2175	25.05
36.2276	24.80
36.2378	24.46
36.248	25.51
36.2581	24.12
36.2683	25.26
36.2785	25.24
36.2886	25.49
36.2988	25.20
36.309	24.68
36.3191	24.84
36.3293	24.51
36.3395	25.07
36.3496	24.99
36.3598	24.79
36.3699	24.16
36.3801	24.31
36.3903	24.41
36.4004	23.93
36.4106	24.97
36.4208	25.03
36.4309	24.40
36.4411	25.22
36.4513	24.52
36.4614	23.98
36.4716	24.91
36.4818	24.82
36.4919	24.21
36.5021	24.96
36.5122	24.63
36.5224	24.45
36.5326	25.43
36.5427	25.21
36.5529	25.34
36.5631	24.37
36.5732	24.65
36.5834	25.51
36.5936	24.71
36.6037	24.83
36.6139	25.09
36.6241	24.67
36.6342	24.82
36.6444	24.80
36.6546	24.93
36.6647	26.49
36.6749	25.58
36.685	25.18
36.6952	24.85
36.7054	24.80
36.7155	25.16
36.7257	25.46
36.7359	24.71
36.746	25.37
36.7562	25.29
36.7664	24.56
36.7765	24.89
36.7867	24.98
36.7969	25.48
36.807	24.71
36.8172	25.58
36.8273	24.46
36.8375	25.37
36.8477	25.66
36.8578	25.41
36.868	25.18
36.8782	25.57
36.8883	25.07
36.8985	24.88
36.9087	25.36
36.9188	25.27
36.929	25.11
36.9392	25.40
36.9493	25.47
36.9595	24.76
36.9696	25.37
36.9798	25.81
36.99	25.91
37.0001	25.46
37.0103	25.34
37.0205	25.19
37.0306	25.17
37.0408	26.38
37.051	25.44
37.0611	25.02
37.0713	25.65
37.0815	25.70
37.0916	26.81
37.1018	25.66
37.112	26.32
37.1221	25.72
37.1323	25.32
37.1424	26.24
37.1526	26.71
37.1628	25.73
37.1729	26.21
37.1831	26.59
37.1933	25.95
37.2034	26.43
37.2136	26.67
37.2238	25.70
37.2339	26.35
37.2441	25.97
37.2543	26.20
37.2644	27.12
37.2746	26.20
37.2847	26.32
37.2949	26.19
37.3051	26.35
37.3152	25.52
37.3254	26.14
37.3356	26.37
37.3457	26.13
37.3559	26.93
37.3661	26.82
37.3762	26.38
37.3864	26.41
37.3966	25.82
37.4067	26.07
37.4169	26.01
37.4271	27.37
37.4372	25.96
37.4474	25.88
37.4575	26.40
37.4677	26.12
37.4779	26.12
37.488	26.55
37.4982	27.01
37.5084	26.93
37.5185	26.49
37.5287	26.50
37.5389	27.02
37.549	26.88
37.5592	26.24
37.5694	26.52
37.5795	27.66
37.5897	26.60
37.5998	26.70
37.61	27.71
37.6202	27.27
37.6303	27.25
37.6405	27.27
37.6507	27.63
37.6608	27.02
37.671	26.54
37.6812	27.21
37.6913	28.05
37.7015	27.23
37.7117	27.05
37.7218	27.27
37.732	27.26
37.7422	27.10
37.7523	28.33
37.7625	27.12
37.7726	27.76
37.7828	26.86
37.793	27.29
37.8031	27.90
37.8133	27.43
37.8235	28.37
37.8336	28.29
37.8438	27.22
37.854	27.67
37.8641	27.57
37.8743	27.70
37.8845	27.68
37.8946	28.34
37.9048	28.59
37.9149	28.05
37.9251	28.12
37.9353	28.88
37.9454	28.35
37.9556	27.79
37.9658	27.94
37.9759	28.83
37.9861	28.48
37.9963	28.20
38.0064	28.48
38.0166	28.04
38.0268	28.72
38.0369	28.26
38.0471	28.32
38.0573	28.59
38.0674	29.23
38.0776	29.27
38.0877	28.66
38.0979	28.38
38.1081	28.60
38.1182	29.09
38.1284	28.99
38.1386	28.21
38.1487	29.12
38.1589	29.34
38.1691	28.96
38.1792	28.53
38.1894	29.22
38.1996	29.62
38.2097	28.96
38.2199	29.09
38.23	28.27
38.2402	28.89
38.2504	28.37
38.2605	29.09
38.2707	29.81
38.2809	29.64
38.291	28.35
38.3012	28.83
38.3114	29.59
38.3215	28.88
38.3317	29.40
38.3419	28.65
38.352	29.48
38.3622	29.24
38.3724	29.22
38.3825	28.59
38.3927	28.87
38.4028	28.62
38.413	29.12
38.4232	29.37
38.4333	29.13
38.4435	29.64
38.4537	29.12
38.4638	29.60
38.474	28.76
38.4842	29.69
38.4943	29.30
38.5045	28.60
38.5147	29.28
38.5248	28.98
38.535	29.15
38.5451	29.01
38.5553	29.18
38.5655	28.88
38.5756	29.20
38.5858	29.21
38.596	28.52
38.6061	29.02
38.6163	28.42
38.6265	28.92
38.6366	28.96
38.6468	29.63
38.657	29.02
38.6671	28.58
38.6773	28.76
38.6875	28.55
38.6976	28.79
38.7078	28.79
38.7179	28.52
38.7281	28.77
38.7383	29.35
38.7484	29.08
38.7586	28.45
38.7688	29.91
38.7789	28.77
38.7891	28.87
38.7993	29.00
38.8094	28.37
38.8196	29.08
38.8298	28.66
38.8399	28.49
38.8501	28.87
38.8602	28.73
38.8704	28.89
38.8806	28.92
38.8907	27.99
38.9009	29.22
38.9111	28.83
38.9212	28.59
38.9314	27.81
38.9416	28.88
38.9517	28.03
38.9619	28.49
38.9721	28.63
38.9822	28.04
38.9924	28.18
39.0025	28.22
39.0127	28.10
39.0229	27.93
39.033	27.88
39.0432	27.78
39.0534	27.84
39.0635	27.51
39.0737	26.99
39.0839	27.72
39.094	28.05
39.1042	26.91
39.1144	28.02
39.1245	28.26
39.1347	27.80
39.1449	28.23
39.155	26.76
39.1652	27.12
39.1753	27.18
39.1855	27.84
39.1957	26.74
39.2058	27.38
39.216	26.81
39.2262	27.03
39.2363	26.96
39.2465	27.04
39.2567	27.34
39.2668	27.46
39.277	25.99
39.2872	26.44
39.2973	26.78
39.3075	26.91
39.3176	26.43
39.3278	26.19
39.338	26.61
39.3481	25.86
39.3583	26.20
39.3685	26.59
39.3786	26.51
39.3888	26.92
39.399	26.75
39.4091	26.38
39.4193	26.05
39.4295	26.73
39.4396	26.43
39.4498	26.34
39.46	26.23
39.4701	26.44
39.4803	25.72
39.4904	26.95
39.5006	26.29
39.5108	26.01
39.5209	26.16
39.5311	26.29
39.5413	25.07
39.5514	25.91
39.5616	25.95
39.5718	26.71
39.5819	26.50
39.5921	25.60
39.6023	26.10
39.6124	26.18
39.6226	25.81
39.6327	25.20
39.6429	25.46
39.6531	25.55
39.6632	26.10
39.6734	25.37
39.6836	25.62
39.6937	25.80
39.7039	25.48
39.7141	25.61
39.7242	25.42
39.7344	25.98
39.7446	25.50
39.7547	25.14
39.7649	25.27
39.7751	25.36
39.7852	25.41
39.7954	25.26
39.8055	25.14
39.8157	25.68
39.8259	24.89
39.836	25.00
39.8462	25.37
39.8564	25.41
39.8665	25.35
39.8767	25.65
39.8869	24.70
39.897	24.81
39.9072	24.91
39.9174	25.21
39.9275	25.20
39.9377	24.99
39.9478	25.23
39.958	25.77
39.9682	25.88
39.9783	25.13
39.9885	25.21
39.9987	25.12
40.0088	25.07
