5.0023	54.82
5.0125	53.87
5.0226	52.54
5.0328	52.55
5.043	51.96
5.0531	51.39
5.0633	50.10
5.0735	49.82
5.0836	48.52
5.0938	46.42
5.1039	46.76
5.1141	46.13
5.1243	46.41
5.1344	45.57
5.1446	44.65
5.1548	43.70
5.1649	43.88
5.1751	43.24
5.1853	41.38
5.1954	40.77
5.2056	41.80
5.2158	40.16
5.2259	40.16
5.2361	39.59
5.2462	39.18
5.2564	39.26
5.2666	38.29
5.2767	37.34
5.2869	37.79
5.2971	36.58
5.3072	36.20
5.3174	35.58
5.3276	36.39
5.3377	34.56
5.3479	35.50
5.3581	34.68
5.3682	34.67
5.3784	34.49
5.3886	32.98
5.3987	32.67
5.4089	32.70
5.419	33.46
5.4292	32.37
5.4394	31.81
5.4495	32.33
5.4597	30.79
5.4699	31.30
5.48	30.99
5.4902	29.79
5.5004	30.61
5.5105	29.47
5.5207	29.74
5.5309	28.61
5.541	29.51
5.5512	28.04
5.5613	28.52
5.5715	27.79
5.5817	27.78
5.5918	26.99
5.602	28.12
5.6122	27.74
5.6223	26.72
5.6325	27.51
5.6427	26.93
5.6528	26.81
5.663	27.62
5.6732	25.76
5.6833	25.71
5.6935	26.41
5.7036	25.97
5.7138	25.84
5.724	25.98
5.7341	25.20
5.7443	25.51
5.7545	25.46
5.7646	25.59
5.7748	25.33
5.785	25.09
5.7951	25.02
5.8053	24.63
5.8155	24.27
5.8256	24.99
5.8358	25.11
5.846	24.38
5.8561	24.60
5.8663	23.90
5.8764	25.16
5.8866	24.34
5.8968	24.40
5.9069	24.16
5.9171	24.16
5.9273	24.20
5.9374	25.11
5.9476	23.76
5.9578	23.71
5.9679	24.49
5.9781	24.14
5.9883	24.30
5.9984	23.76
6.0086	23.18
6.0187	24.13
6.0289	23.91
6.0391	22.40
6.0492	23.65
6.0594	23.55
6.0696	24.14
6.0797	23.90
6.0899	23.93
6.1001	23.45
6.1102	23.66
6.1204	23.63
6.1306	22.86
6.1407	23.19
6.1509	23.66
6.1611	22.79
6.1712	23.52
6.1814	22.89
6.1915	22.82
6.2017	23.18
6.2119	23.37
6.222	22.98
6.2322	23.34
6.2424	22.60
6.2525	23.48
6.2627	23.17
6.2729	22.91
6.283	23.47
6.2932	23.16
6.3034	22.99
6.3135	22.64
6.3237	22.76
6.3338	23.60
6.344	23.68
6.3542	23.46
6.3643	23.51
6.3745	23.44
6.3847	23.07
6.3948	21.90
6.405	23.75
6.4152	22.99
6.4253	23.11
6.4355	23.10
6.4457	22.71
6.4558	21.96
6.466	23.02
6.4762	22.91
6.4863	22.85
6.4965	23.51
6.5066	22.33
6.5168	22.80
6.527	23.49
6.5371	23.25
6.5473	23.01
6.5575	22.77
6.5676	23.21
6.5778	23.14
6.588	23.27
6.5981	23.45
6.6083	23.24
6.6185	22.61
6.6286	22.59
6.6388	23.27
6.6489	23.49
6.6591	22.15
6.6693	22.82
6.6794	22.98
6.6896	23.16
6.6998	23.42
6.7099	23.56
6.7201	23.34
6.7303	23.41
6.7404	23.99
6.7506	23.49
6.7608	22.96
6.7709	23.54
6.7811	23.64
6.7913	23.78
6.8014	23.24
6.8116	23.94
6.8217	23.58
6.8319	23.24
6.8421	23.89
6.8522	23.48
6.8624	23.32
6.8726	23.09
6.8827	23.68
6.8929	22.52
6.9031	23.31
6.9132	23.98
6.9234	23.76
6.9336	23.12
6.9437	23.73
6.9539	23.96
6.964	23.18
6.9742	23.48
6.9844	23.58
6.9945	23.30
7.0047	23.45
7.0149	24.01
7.025	23.73
7.0352	23.55
7.0454	23.49
7.0555	23.71
7.0657	24.01
7.0759	23.91
7.086	23.13
7.0962	24.09
7.1064	24.22
7.1165	22.99
7.1267	23.65
7.1368	24.29
7.147	23.58
7.1572	23.16
7.1673	24.00
7.1775	23.99
7.1877	24.13
7.1978	24.12
7.208	23.49
7.2182	24.49
7.2283	24.13
7.2385	24.64
7.2487	24.27
7.2588	24.09
7.269	23.40
7.2791	24.35
7.2893	23.68
7.2995	23.46
7.3096	25.50
7.3198	24.24
7.33	24.07
7.3401	24.30
7.3503	24.85
7.3605	24.44
7.3706	23.99
7.3808	23.57
7.391	23.37
7.4011	24.43
7.4113	24.46
7.4215	24.26
7.4316	25.22
7.4418	23.76
7.4519	23.95
7.4621	24.31
7.4723	24.48
7.4824	23.62
7.4926	23.85
7.5028	25.01
7.5129	24.40
7.5231	25.06
7.5333	24.84
7.5434	25.43
7.5536	25.54
7.5638	24.43
7.5739	24.89
7.5841	24.49
7.5942	25.36
7.6044	25.01
7.6146	25.46
7.6247	24.99
7.6349	24.45
7.6451	24.41
7.6552	25.22
7.6654	24.40
7.6756	24.81
7.6857	24.86
7.6959	24.35
7.7061	24.51
7.7162	24.73
7.7264	25.05
7.7365	25.35
7.7467	24.99
7.7569	24.59
7.767	24.60
7.7772	24.93
7.7874	25.22
7.7975	24.68
7.8077	25.49
7.8179	25.37
7.828	24.99
7.8382	25.72
7.8484	24.91
7.8585	25.03
7.8687	25.91
7.8789	24.64
7.889	25.66
7.8992	25.60
7.9093	25.67
7.9195	25.34
7.9297	26.20
7.9398	24.93
7.95	26.45
7.9602	25.79
7.9703	25.52
7.9805	25.37
7.9907	26.27
8.0008	25.78
8.011	25.68
8.0212	26.69
8.0313	25.65
8.0415	25.59
8.0516	25.67
8.0618	26.09
8.072	26.02
8.0821	25.51
8.0923	25.49
8.1025	25.51
8.1126	26.29
8.1228	25.99
8.133	25.68
8.1431	26.21
8.1533	25.90
8.1635	25.84
8.1736	26.96
8.1838	25.25
8.194	26.02
8.2041	25.90
8.2143	26.74
8.2244	26.51
8.2346	26.80
8.2448	26.71
8.2549	26.29
8.2651	27.02
8.2753	26.34
8.2854	26.23
8.2956	26.91
8.3058	26.26
8.3159	26.34
8.3261	27.73
8.3363	27.16
8.3464	26.76
8.3566	26.87
8.3667	26.77
8.3769	26.29
8.3871	26.48
8.3972	26.73
8.4074	27.12
8.4176	27.52
8.4277	26.94
8.4379	27.27
8.4481	27.27
8.4582	27.23
8.4684	27.41
8.4786	27.27
8.4887	26.27
8.4989	26.95
8.5091	26.72
8.5192	26.78
8.5294	27.52
8.5395	27.05
8.5497	27.54
8.5599	27.46
8.57	27.01
8.5802	27.19
8.5904	27.29
8.6005	28.48
8.6107	27.56
8.6209	27.77
8.631	27.84
8.6412	27.16
8.6514	27.45
8.6615	28.44
8.6717	27.61
8.6818	27.15
8.692	27.63
8.7022	27.43
8.7123	27.36
8.7225	27.88
8.7327	27.68
8.7428	26.88
8.753	27.97
8.7632	28.06
8.7733	27.71
8.7835	27.94
8.7937	28.27
8.8038	28.44
8.814	28.32
8.8242	28.32
8.8343	28.15
8.8445	28.48
8.8546	27.70
8.8648	28.01
8.875	28.18
8.8851	27.87
8.8953	28.05
8.9055	27.59
8.9156	27.41
8.9258	28.57
8.936	27.83
8.9461	27.35
8.9563	28.66
8.9665	28.74
8.9766	27.64
8.9868	28.55
8.9969	28.88
9.0071	28.09
9.0173	27.88
9.0274	28.45
9.0376	29.10
9.0478	28.93
9.0579	28.02
9.0681	28.98
9.0783	29.07
9.0884	28.55
9.0986	28.31
9.1088	29.34
9.1189	29.21
9.1291	28.52
9.1393	28.50
9.1494	29.23
9.1596	28.99
9.1697	29.20
9.1799	29.16
9.1901	28.88
9.2002	29.58
9.2104	29.33
9.2206	29.01
9.2307	29.05
9.2409	29.83
9.2511	29.32
9.2612	29.53
9.2714	29.91
9.2816	29.29
9.2917	29.83
9.3019	30.13
9.312	29.43
9.3222	29.62
9.3324	30.05
9.3425	30.16
9.3527	30.01
9.3629	30.07
9.373	29.93
9.3832	29.75
9.3934	30.20
9.4035	30.43
9.4137	29.61
9.4239	30.41
9.434	30.18
9.4442	29.45
9.4544	30.49
9.4645	30.13
9.4747	30.24
9.4848	30.29
9.495	29.84
9.5052	30.23
9.5153	30.40
9.5255	29.79
9.5357	29.84
9.5458	30.92
9.556	29.39
9.5662	30.03
9.5763	30.18
9.5865	29.72
9.5967	30.15
9.6068	30.40
9.617	30.15
9.6271	30.41
9.6373	30.59
9.6475	30.28
9.6576	29.77
9.6678	30.21
9.678	29.68
9.6881	31.04
9.6983	30.18
9.7085	30.01
9.7186	31.18
9.7288	30.34
9.739	30.60
9.7491	31.05
9.7593	30.62
9.7694	31.15
9.7796	30.35
9.7898	29.71
9.7999	31.13
9.8101	31.25
9.8203	30.22
9.8304	30.72
9.8406	31.00
9.8508	31.60
9.8609	30.77
9.8711	31.81
9.8813	30.20
9.8914	31.12
9.9016	30.50
9.9118	31.77
9.9219	31.30
9.9321	31.41
9.9422	31.85
9.9524	31.32
9.9626	30.77
9.9727	31.80
9.9829	31.60
9.9931	32.86
10.0032	31.57
10.0134	32.28
10.0236	31.33
10.0337	31.51
10.0439	30.95
10.0541	31.79
10.0642	32.43
10.0744	31.79
10.0845	31.48
10.0947	32.73
10.1049	31.63
10.115	32.20
10.1252	31.86
10.1354	32.76
10.1455	31.68
10.1557	31.24
10.1659	32.55
10.176	31.93
10.1862	32.30
10.1964	31.62
10.2065	31.18
10.2167	32.05
10.2269	32.01
10.237	32.12
10.2472	31.62
10.2573	31.48
10.2675	32.63
10.2777	32.47
10.2878	32.43
10.298	32.63
10.3082	32.71
10.3183	31.98
10.3285	31.91
10.3387	32.61
10.3488	31.83
10.359	33.08
10.3692	32.24
10.3793	32.90
10.3895	33.84
10.3996	32.37
10.4098	32.76
10.42	32.60
10.4301	33.22
10.4403	32.91
10.4505	32.70
10.4606	33.71
10.4708	32.88
10.481	33.74
10.4911	33.17
10.5013	32.91
10.5115	33.63
10.5216	33.33
10.5318	33.12
10.542	33.33
10.5521	32.80
10.5623	33.41
10.5724	33.12
10.5826	33.48
10.5928	33.02
10.6029	33.15
10.6131	32.40
10.6233	32.98
10.6334	32.82
10.6436	34.40
10.6538	33.14
10.6639	33.71
10.6741	33.27
10.6843	33.38
10.6944	33.43
10.7046	33.98
10.7147	35.42
10.7249	33.98
10.7351	33.95
10.7452	33.53
10.7554	34.29
10.7656	33.32
10.7757	33.70
10.7859	34.37
10.7961	34.39
10.8062	33.92
10.8164	33.61
10.8266	34.06
10.8367	33.93
10.8469	34.21
10.8571	34.43
10.8672	33.91
10.8774	33.63
10.8875	33.86
10.8977	34.20
10.9079	34.62
10.918	33.45
10.9282	34.96
10.9384	34.74
10.9485	34.33
10.9587	35.05
10.9689	34.52
10.979	34.60
10.9892	35.07
10.9994	35.05
11.0095	34.76
11.0197	35.09
11.0298	34.84
11.04	35.34
11.0502	35.27
11.0603	34.95
11.0705	34.10
11.0807	35.19
11.0908	34.90
11.101	35.24
11.1112	34.69
11.1213	34.88
11.1315	34.43
11.1417	35.35
11.1518	35.93
11.162	35.22
11.1722	35.55
11.1823	35.70
11.1925	34.81
11.2026	35.16
11.2128	36.08
11.223	35.30
11.2331	34.96
11.2433	35.41
11.2535	35.89
11.2636	36.16
11.2738	36.05
11.284	36.34
11.2941	36.60
11.3043	36.41
11.3145	36.26
11.3246	35.77
11.3348	36.70
11.3449	35.15
11.3551	37.15
11.3653	36.20
11.3754	36.76
11.3856	36.66
11.3958	36.49
11.4059	36.69
11.4161	35.93
11.4263	35.98
11.4364	36.54
11.4466	36.63
11.4568	37.46
11.4669	36.34
11.4771	36.59
11.4873	36.78
11.4974	36.35
11.5076	36.72
11.5177	35.79
11.5279	36.46
11.5381	36.71
11.5482	37.38
11.5584	37.05
11.5686	38.05
11.5787	37.59
11.5889	37.41
11.5991	37.60
11.6092	37.71
11.6194	37.79
11.6296	37.25
11.6397	37.48
11.6499	37.72
11.66	37.37
11.6702	37.63
11.6804	37.40
11.6905	37.70
11.7007	37.45
11.7109	38.15
11.721	37.46
11.7312	38.00
11.7414	38.79
11.7515	38.22
11.7617	39.04
11.7719	37.62
11.782	38.74
11.7922	38.95
11.8023	37.95
11.8125	38.83
11.8227	37.78
11.8328	38.40
11.843	37.70
11.8532	38.69
11.8633	38.91
11.8735	38.57
11.8837	38.36
11.8938	38.63
11.904	37.95
11.9142	39.05
11.9243	39.09
11.9345	37.54
11.9447	38.80
11.9548	39.73
11.965	39.22
11.9751	39.24
11.9853	38.24
11.9955	39.41
12.0056	39.37
12.0158	40.33
12.026	38.71
12.0361	39.84
12.0463	40.22
12.0565	39.96
12.0666	39.39
12.0768	38.99
12.087	39.87
12.0971	39.85
12.1073	38.68
12.1174	40.76
12.1276	40.18
12.1378	41.38
12.1479	39.60
12.1581	39.67
12.1683	40.40
12.1784	40.65
12.1886	40.27
12.1988	39.79
12.2089	41.02
12.2191	40.36
12.2293	40.76
12.2394	40.87
12.2496	40.75
12.2598	40.32
12.2699	41.63
12.2801	40.90
12.2902	40.74
12.3004	40.87
12.3106	40.12
12.3207	40.95
12.3309	41.23
12.3411	40.15
12.3512	41.41
12.3614	41.12
12.3716	41.42
12.3817	41.29
12.3919	42.00
12.4021	40.96
12.4122	41.68
12.4224	41.85
12.4325	41.64
12.4427	41.19
12.4529	42.23
12.463	41.92
12.4732	41.74
12.4834	42.54
12.4935	42.05
12.5037	41.94
12.5139	41.73
12.524	42.63
12.5342	42.69
12.5444	42.79
12.5545	42.51
12.5647	42.29
12.5749	43.30
12.585	42.27
12.5952	42.67
12.6053	42.09
12.6155	42.49
12.6257	43.35
12.6358	42.61
12.646	42.73
12.6562	42.07
12.6663	42.35
12.6765	43.36
12.6867	43.52
12.6968	43.91
12.707	44.70
12.7172	44.13
12.7273	44.57
12.7375	44.41
12.7476	43.90
12.7578	45.51
12.768	44.15
12.7781	43.91
12.7883	44.98
12.7985	43.65
12.8086	43.59
12.8188	45.16
12.829	43.96
12.8391	44.88
12.8493	45.16
12.8595	44.93
12.8696	43.95
12.8798	44.95
12.89	43.86
12.9001	45.72
12.9103	44.68
12.9204	44.93
12.9306	44.75
12.9408	44.83
12.9509	45.00
12.9611	45.40
12.9713	45.60
12.9814	46.28
12.9916	46.03
13.0018	45.73
13.0119	46.65
13.0221	46.02
13.0323	46.54
13.0424	46.28
13.0526	46.17
13.0627	46.23
13.0729	46.36
13.0831	46.44
13.0932	45.93
13.1034	46.12
13.1136	46.84
13.1237	47.52
13.1339	47.32
13.1441	47.56
13.1542	46.40
13.1644	46.85
13.1746	46.55
13.1847	46.70
13.1949	48.55
13.2051	46.99
13.2152	46.87
13.2254	47.73
13.2355	47.27
13.2457	47.63
13.2559	47.97
13.266	48.29
13.2762	48.79
13.2864	48.53
13.2965	48.34
13.3067	47.90
13.3169	48.07
13.327	48.02
13.3372	48.74
13.3474	49.53
13.3575	49.09
13.3677	49.82
13.3778	49.84
13.388	49.32
13.3982	49.46
13.4083	48.98
13.4185	49.07
13.4287	48.59
13.4388	49.07
13.449	49.01
13.4592	50.52
13.4693	49.11
13.4795	49.45
13.4897	49.71
13.4998	49.61
13.51	49.70
13.5201	50.43
13.5303	49.88
13.5405	50.51
13.5506	51.13
13.5608	49.35
13.571	49.71
13.5811	52.28
13.5913	51.99
13.6015	51.98
13.6116	51.48
13.6218	51.85
13.632	51.78
13.6421	51.73
13.6523	51.35
13.6625	52.51
13.6726	51.94
13.6828	52.79
13.6929	52.14
13.7031	52.95
13.7133	52.07
13.7234	51.93
13.7336	52.97
13.7438	52.24
13.7539	52.96
13.7641	53.16
13.7743	52.65
13.7844	53.75
13.7946	53.61
13.8048	54.80
13.8149	52.71
13.8251	53.91
13.8352	52.60
13.8454	53.97
13.8556	53.90
13.8657	53.47
13.8759	53.26
13.8861	54.24
13.8962	53.11
13.9064	53.77
13.9166	55.87
13.9267	54.60
13.9369	53.62
13.9471	54.68
13.9572	55.19
13.9674	54.29
13.9776	54.96
13.9877	55.80
13.9979	55.07
14.008	55.46
14.0182	55.52
14.0284	56.07
14.0385	56.18
14.0487	55.49
14.0589	55.48
14.069	56.26
14.0792	56.69
14.0894	55.65
14.0995	55.71
14.1097	56.85
14.1199	56.63
14.13	56.52
14.1402	56.71
14.1503	56.85
14.1605	56.75
14.1707	57.21
14.1808	57.48
14.191	58.71
14.2012	57.01
14.2113	58.28
14.2215	57.66
14.2317	58.49
14.2418	57.84
14.252	58.51
14.2622	59.24
14.2723	58.63
14.2825	58.40
14.2927	58.67
14.3028	57.84
14.313	59.34
14.3231	58.73
14.3333	59.55
14.3435	60.18
14.3536	59.19
14.3638	59.44
14.374	59.05
14.3841	60.31
14.3943	61.46
14.4045	61.47
14.4146	60.12
14.4248	60.61
14.435	62.13
14.4451	60.03
14.4553	60.08
14.4654	60.38
14.4756	61.45
14.4858	60.71
14.4959	61.69
14.5061	61.70
14.5163	61.22
14.5264	61.41
14.5366	61.50
14.5468	61.40
14.5569	62.60
14.5671	61.99
14.5773	62.67
14.5874	62.58
14.5976	62.22
14.6078	62.05
14.6179	63.38
14.6281	62.60
14.6382	63.56
14.6484	63.27
14.6586	63.51
14.6687	63.81
14.6789	65.08
14.6891	64.06
14.6992	63.57
14.7094	63.98
14.7196	64.12
14.7297	64.50
14.7399	65.61
14.7501	64.80
14.7602	65.07
14.7704	66.21
14.7805	64.85
14.7907	65.05
14.8009	65.28
14.811	65.84
14.8212	66.37
14.8314	65.87
14.8415	66.29
14.8517	65.75
14.8619	66.44
14.872	67.05
14.8822	66.69
14.8924	67.38
14.9025	66.59
14.9127	68.16
14.9229	68.44
14.933	68.09
14.9432	67.22
14.9533	67.23
14.9635	67.41
14.9737	69.34
14.9838	69.27
14.994	68.68
15.0042	68.71
15.0143	68.56
15.0245	68.98
15.0347	68.79
15.0448	68.46
15.055	68.15
15.0652	70.01
15.0753	69.15
15.0855	71.29
15.0956	71.27
15.1058	71.45
15.116	70.83
15.1261	69.77
15.1363	70.32
15.1465	70.55
15.1566	71.87
15.1668	70.85
15.177	71.65
15.1871	71.35
15.1973	71.51
15.2075	70.95
15.2176	71.11
15.2278	71.59
15.238	73.01
15.2481	72.79
15.2583	73.18
15.2684	72.20
15.2786	72.45
15.2888	74.74
15.2989	72.93
15.3091	73.15
15.3193	73.55
15.3294	75.00
15.3396	73.89
15.3498	73.99
15.3599	75.90
15.3701	74.20
15.3803	75.96
15.3904	75.79
15.4006	75.48
15.4107	75.15
15.4209	73.52
15.4311	74.39
15.4412	75.80
15.4514	75.38
15.4616	76.68
15.4717	76.91
15.4819	77.20
15.4921	76.00
15.5022	77.77
15.5124	75.68
15.5226	78.09
15.5327	77.57
15.5429	76.18
15.553	76.77
15.5632	77.53
15.5734	78.04
15.5835	79.90
15.5937	77.95
15.6039	78.97
15.614	80.43
15.6242	79.04
15.6344	79.01
15.6445	78.82
15.6547	79.11
15.6649	80.41
15.675	80.22
15.6852	80.55
15.6954	78.60
15.7055	82.51
15.7157	81.52
15.7258	80.56
15.736	81.45
15.7462	80.49
15.7563	81.84
15.7665	81.43
15.7767	81.91
15.7868	82.46
15.797	83.78
15.8072	83.13
15.8173	82.32
15.8275	82.93
15.8377	82.77
15.8478	82.47
15.858	82.21
15.8681	83.02
15.8783	82.96
15.8885	84.13
15.8986	85.29
15.9088	84.29
15.919	85.18
15.9291	84.67
15.9393	84.57
15.9495	85.37
15.9596	84.55
15.9698	84.89
15.98	85.30
15.9901	85.84
16.0003	86.07
16.0105	86.35
16.0206	86.09
16.0308	87.95
16.0409	86.33
16.0511	87.40
16.0613	87.01
16.0714	86.58
16.0816	88.32
16.0918	87.73
16.1019	88.43
16.1121	88.70
16.1223	89.36
16.1324	89.35
16.1426	89.34
16.1528	89.20
16.1629	90.56
16.1731	89.85
16.1832	90.49
16.1934	90.71
16.2036	90.28
16.2137	90.75
16.2239	90.61
16.2341	91.32
16.2442	89.84
16.2544	91.26
16.2646	92.41
16.2747	93.18
16.2849	93.06
16.2951	92.25
16.3052	92.20
16.3154	93.17
16.3256	92.36
16.3357	93.15
16.3459	92.78
16.356	93.52
16.3662	94.80
16.3764	93.15
16.3865	94.10
16.3967	94.32
16.4069	94.69
16.417	96.79
16.4272	96.58
16.4374	95.28
16.4475	96.36
16.4577	96.27
16.4679	96.46
16.478	96.46
16.4882	97.04
16.4983	95.54
16.5085	97.73
16.5187	96.09
16.5288	97.37
16.539	99.49
16.5492	97.49
16.5593	99.42
16.5695	97.57
16.5797	99.38
16.5898	99.57
16.6	100.30
16.6102	99.26
16.6203	99.38
16.6305	100.86
16.6407	100.32
16.6508	101.37
16.661	100.02
16.6711	99.28
16.6813	100.41
16.6915	101.93
16.7016	102.02
16.7118	102.90
16.722	101.93
16.7321	103.24
16.7423	102.63
16.7525	102.67
16.7626	103.29
16.7728	103.81
16.783	103.49
16.7931	102.41
16.8033	103.37
16.8134	103.43
16.8236	105.06
16.8338	103.94
16.8439	104.82
16.8541	103.74
16.8643	104.32
16.8744	105.14
16.8846	105.95
16.8948	105.13
16.9049	106.07
16.9151	105.68
16.9253	105.88
16.9354	107.87
16.9456	105.87
16.9558	106.67
16.9659	106.38
16.9761	106.70
16.9862	106.77
16.9964	107.83
17.0066	107.84
17.0167	106.42
17.0269	107.32
17.0371	108.35
17.0472	109.51
17.0574	109.28
17.0676	109.71
17.0777	109.71
17.0879	108.67
17.0981	109.29
17.1082	108.68
17.1184	111.02
17.1285	110.77
17.1387	109.60
17.1489	111.37
17.159	110.96
17.1692	110.70
17.1794	112.26
17.1895	110.63
17.1997	111.06
17.2099	113.98
17.22	112.60
17.2302	111.55
17.2404	115.68
17.2505	111.82
17.2607	112.38
17.2709	113.10
17.281	114.24
17.2912	114.90
17.3013	114.79
17.3115	113.80
17.3217	117.06
17.3318	116.58
17.342	115.29
17.3522	115.81
17.3623	116.77
17.3725	116.60
17.3827	117.13
17.3928	116.68
17.403	117.09
17.4132	116.79
17.4233	118.90
17.4335	118.84
17.4436	118.38
17.4538	120.19
17.464	119.13
17.4741	120.15
17.4843	119.96
17.4945	119.45
17.5046	121.24
17.5148	121.31
17.525	119.99
17.5351	121.52
17.5453	121.76
17.5555	121.34
17.5656	121.23
17.5758	122.55
17.5859	121.60
17.5961	122.84
17.6063	126.21
17.6164	125.10
17.6266	123.10
17.6368	126.74
17.6469	126.84
17.6571	126.17
17.6673	128.29
17.6774	125.98
17.6876	127.40
17.6978	129.16
17.7079	128.25
17.7181	128.52
17.7283	130.63
17.7384	128.37
17.7486	132.07
17.7587	133.34
17.7689	134.14
17.7791	134.43
17.7892	132.34
17.7994	134.21
17.8096	134.41
17.8197	135.99
17.8299	134.94
17.8401	136.71
17.8502	136.32
17.8604	137.76
17.8706	138.90
17.8807	141.13
17.8909	140.66
17.901	140.93
17.9112	142.88
17.9214	142.72
17.9315	143.98
17.9417	144.87
17.9519	145.99
17.962	144.91
17.9722	149.80
17.9824	147.17
17.9925	151.38
18.0027	151.43
18.0129	152.48
18.023	151.06
18.0332	155.95
18.0434	155.45
18.0535	157.05
18.0637	158.59
18.0738	157.73
18.084	160.79
18.0942	164.19
18.1043	163.96
18.1145	163.23
18.1247	167.01
18.1348	167.91
18.145	168.91
18.1552	171.77
18.1653	172.49
18.1755	173.25
18.1857	180.05
18.1958	178.22
18.206	179.12
18.2161	182.98
18.2263	186.89
18.2365	185.61
18.2466	188.03
18.2568	190.69
18.267	189.52
18.2771	194.10
18.2873	193.79
18.2975	195.12
18.3076	200.95
18.3178	202.13
18.328	201.98
18.3381	206.44
18.3483	207.83
18.3585	207.04
18.3686	210.38
18.3788	210.76
18.3889	212.23
18.3991	214.71
18.4093	213.37
18.4194	214.15
18.4296	218.23
18.4398	219.95
18.4499	220.57
18.4601	222.66
18.4703	223.59
18.4804	223.41
18.4906	225.43
18.5008	225.62
18.5109	224.45
18.5211	225.51
18.5312	227.01
18.5414	226.02
18.5516	227.02
18.5617	227.05
18.5719	224.52
18.5821	225.65
18.5922	223.87
18.6024	221.74
18.6126	225.24
18.6227	222.11
18.6329	221.29
18.6431	220.51
18.6532	218.39
18.6634	216.05
18.6736	213.73
18.6837	215.26
18.6939	212.55
18.704	212.57
18.7142	212.33
18.7244	206.05
18.7345	206.40
18.7447	206.95
18.7549	200.99
18.765	201.55
18.7752	199.40
18.7854	196.44
18.7955	195.62
18.8057	193.85
18.8159	192.18
18.826	188.27
18.8362	189.60
18.8463	186.95
18.8565	185.88
18.8667	184.30
18.8768	181.48
18.887	180.10
18.8972	178.60
18.9073	176.64
18.9175	174.20
18.9277	175.04
18.9378	172.40
18.948	172.70
18.9582	171.41
18.9683	167.12
18.9785	168.93
18.9887	166.86
18.9988	165.85
19.009	165.13
19.0191	163.70
19.0293	161.49
19.0395	160.73
19.0496	159.47
19.0598	158.01
19.07	157.43
19.0801	157.82
19.0903	154.32
19.1005	154.01
19.1106	152.55
19.1208	151.35
19.131	151.79
19.1411	150.23
19.1513	149.83
19.1614	149.51
19.1716	148.10
19.1818	146.74
19.1919	147.04
19.2021	147.28
19.2123	145.87
19.2224	145.39
19.2326	142.68
19.2428	143.09
19.2529	142.29
19.2631	142.95
19.2733	142.83
19.2834	140.29
19.2936	141.40
19.3038	139.73
19.3139	140.43
19.3241	139.20
19.3342	139.51
19.3444	139.22
19.3546	138.20
19.3647	138.46
19.3749	138.23
19.3851	137.43
19.3952	136.54
19.4054	137.38
19.4156	135.45
19.4257	134.21
19.4359	133.74
19.4461	135.90
19.4562	135.82
19.4664	136.27
19.4765	133.82
19.4867	131.12
19.4969	134.01
19.507	133.88
19.5172	133.74
19.5274	132.80
19.5375	132.99
19.5477	133.91
19.5579	133.38
19.568	131.86
19.5782	131.85
19.5884	131.99
19.5985	132.48
19.6087	131.27
19.6188	131.23
19.629	133.16
19.6392	130.45
19.6493	130.59
19.6595	131.21
19.6697	131.18
19.6798	132.66
19.69	129.24
19.7002	128.62
19.7103	130.40
19.7205	131.62
19.7307	129.76
19.7408	130.65
19.751	130.88
19.7612	131.00
19.7713	130.82
19.7815	131.06
19.7916	130.80
19.8018	130.57
19.812	131.63
19.8221	129.44
19.8323	129.91
19.8425	129.73
19.8526	127.29
19.8628	129.80
19.873	130.22
19.8831	127.76
19.8933	129.96
19.9035	130.77
19.9136	128.73
19.9238	130.89
19.9339	128.69
19.9441	128.67
19.9543	130.48
19.9644	131.33
19.9746	129.45
19.9848	130.48
19.9949	131.66
20.0051	129.66
20.0153	129.21
20.0254	131.14
20.0356	129.07
20.0458	130.95
20.0559	130.81
20.0661	127.99
20.0763	131.81
20.0864	130.46
20.0966	131.15
20.1067	133.04
20.1169	132.96
20.1271	132.12
20.1372	130.77
20.1474	131.29
20.1576	132.23
20.1677	132.29
20.1779	134.02
20.1881	130.05
20.1982	132.62
20.2084	131.27
20.2186	134.26
20.2287	132.92
20.2389	134.01
20.249	133.44
20.2592	133.05
20.2694	134.12
20.2795	133.70
20.2897	136.18
20.2999	133.96
20.31	133.13
20.3202	134.29
20.3304	136.12
20.3405	134.54
20.3507	133.71
20.3609	133.80
20.371	132.01
20.3812	135.42
20.3914	133.90
20.4015	134.21
20.4117	132.69
20.4218	135.26
20.432	132.30
20.4422	133.90
20.4523	134.19
20.4625	132.57
20.4727	134.99
20.4828	135.24
20.493	134.54
20.5032	133.63
20.5133	135.18
20.5235	132.53
20.5337	134.76
20.5438	132.91
20.554	131.64
20.5641	133.07
20.5743	132.46
20.5845	131.23
20.5946	131.84
20.6048	133.62
20.615	131.10
20.6251	131.75
20.6353	131.46
20.6455	128.71
20.6556	131.62
20.6658	130.23
20.676	129.64
20.6861	129.50
20.6963	127.99
20.7065	127.63
20.7166	129.46
20.7268	129.53
20.7369	126.82
20.7471	126.76
20.7573	127.03
20.7674	126.54
20.7776	126.10
20.7878	126.57
20.7979	124.34
20.8081	125.24
20.8183	123.63
20.8284	123.68
20.8386	124.17
20.8488	122.54
20.8589	122.72
20.8691	121.90
20.8792	123.34
20.8894	122.79
20.8996	121.40
20.9097	121.01
20.9199	118.93
20.9301	119.64
20.9402	121.21
20.9504	117.65
20.9606	117.97
20.9707	119.08
20.9809	117.12
20.9911	119.61
21.0012	118.61
21.0114	116.99
21.0216	117.69
21.0317	118.57
21.0419	115.42
21.052	116.89
21.0622	117.80
21.0724	115.84
21.0825	118.15
21.0927	115.40
21.1029	115.60
21.113	114.94
21.1232	115.04
21.1334	117.04
21.1435	114.73
21.1537	113.86
21.1639	113.11
21.174	115.28
21.1842	113.96
21.1943	113.88
21.2045	113.80
21.2147	113.31
21.2248	113.46
21.235	115.01
21.2452	114.56
21.2553	113.93
21.2655	113.69
21.2757	113.30
21.2858	112.38
21.296	114.20
21.3062	112.51
21.3163	113.41
21.3265	114.03
21.3366	114.54
21.3468	111.28
21.357	114.05
21.3671	113.55
21.3773	112.48
21.3875	113.04
21.3976	114.40
21.4078	113.14
21.418	112.66
21.4281	113.88
21.4383	113.77
21.4485	113.52
21.4586	113.50
21.4688	112.01
21.479	115.96
21.4891	116.16
21.4993	113.35
21.5094	114.67
21.5196	117.25
21.5298	114.97
21.5399	115.82
21.5501	118.28
21.5603	115.79
21.5704	118.23
21.5806	116.87
21.5908	115.60
21.6009	119.12
21.6111	118.54
21.6213	116.38
21.6314	120.29
21.6416	119.09
21.6517	120.12
21.6619	121.10
21.6721	122.11
21.6822	122.59
21.6924	125.20
21.7026	122.84
21.7127	122.75
21.7229	125.07
21.7331	126.51
21.7432	125.62
21.7534	126.63
21.7636	126.34
21.7737	125.89
21.7839	127.61
21.7941	131.01
21.8042	128.37
21.8144	130.26
21.8245	131.13
21.8347	129.60
21.8449	132.04
21.855	133.35
21.8652	132.30
21.8754	133.66
21.8855	133.66
21.8957	134.69
21.9059	133.77
21.916	134.52
21.9262	135.38
21.9364	133.85
21.9465	135.93
21.9567	133.79
21.9668	136.97
21.977	137.90
21.9872	137.16
21.9973	137.32
22.0075	138.58
22.0177	137.90
22.0278	138.96
22.038	138.42
22.0482	138.13
22.0583	138.93
22.0685	140.22
22.0787	139.99
22.0888	141.58
22.099	140.86
22.1092	141.20
22.1193	140.88
22.1295	141.89
22.1396	141.30
22.1498	142.15
22.16	141.45
22.1701	142.43
22.1803	142.44
22.1905	144.35
22.2006	141.05
22.2108	142.71
22.221	145.09
22.2311	144.49
22.2413	144.54
22.2515	142.73
22.2616	139.31
22.2718	142.74
22.2819	142.04
22.2921	141.54
22.3023	143.41
22.3124	144.94
22.3226	143.77
22.3328	143.42
22.3429	144.73
22.3531	141.42
22.3633	143.03
22.3734	141.93
22.3836	142.57
22.3938	142.91
22.4039	141.92
22.4141	139.26
22.4243	141.13
22.4344	141.26
22.4446	140.31
22.4547	139.30
22.4649	139.27
22.4751	139.84
22.4852	137.84
22.4954	139.15
22.5056	135.20
22.5157	137.93
22.5259	136.16
22.5361	134.79
22.5462	136.05
22.5564	134.74
22.5666	132.77
22.5767	133.76
22.5869	131.72
22.597	131.68
22.6072	132.39
22.6174	131.12
22.6275	129.66
22.6377	129.87
22.6479	128.73
22.658	127.57
22.6682	128.91
22.6784	126.48
22.6885	126.63
22.6987	127.13
22.7089	125.57
22.719	123.52
22.7292	124.68
22.7394	125.13
22.7495	121.61
22.7597	120.16
22.7698	121.61
22.78	119.87
22.7902	120.18
22.8003	120.39
22.8105	117.81
22.8207	118.48
22.8308	117.16
22.841	116.96
22.8512	116.01
22.8613	115.16
22.8715	114.38
22.8817	112.96
22.8918	113.23
22.902	112.73
22.9121	112.71
22.9223	112.27
22.9325	110.71
22.9426	110.20
22.9528	109.63
22.963	108.93
22.9731	108.46
22.9833	107.14
22.9935	106.04
23.0036	106.63
23.0138	105.95
23.024	105.35
23.0341	107.97
23.0443	103.71
23.0545	103.73
23.0646	104.87
23.0748	102.99
23.0849	100.84
23.0951	103.18
23.1053	102.57
23.1154	100.21
23.1256	97.40
23.1358	99.96
23.1459	97.61
23.1561	98.94
23.1663	99.01
23.1764	97.48
23.1866	95.69
23.1968	96.34
23.2069	94.60
23.2171	94.98
23.2272	94.51
23.2374	94.60
23.2476	95.14
23.2577	92.69
23.2679	92.15
23.2781	92.90
23.2882	93.00
23.2984	92.18
23.3086	92.02
23.3187	89.23
23.3289	90.47
23.3391	88.04
23.3492	88.55
23.3594	88.25
23.3695	89.73
23.3797	88.05
23.3899	87.45
23.4	87.41
23.4102	87.09
23.4204	86.72
23.4305	85.88
23.4407	86.46
23.4509	86.10
23.461	85.35
23.4712	83.58
23.4814	82.83
23.4915	85.52
23.5017	83.60
23.5119	82.43
23.522	83.34
23.5322	82.41
23.5423	82.92
23.5525	80.82
23.5627	81.70
23.5728	81.45
23.583	80.99
23.5932	80.99
23.6033	80.92
23.6135	79.26
23.6237	78.59
23.6338	79.09
23.644	79.85
23.6542	78.83
23.6643	78.85
23.6745	77.91
23.6846	78.03
23.6948	77.57
23.705	77.45
23.7151	76.50
23.7253	76.42
23.7355	77.80
23.7456	76.36
23.7558	74.50
23.766	76.34
23.7761	75.76
23.7863	75.55
23.7965	75.65
23.8066	74.52
23.8168	74.53
23.827	75.10
23.8371	73.70
23.8473	73.77
23.8574	72.72
23.8676	73.35
23.8778	72.47
23.8879	74.26
23.8981	71.86
23.9083	72.09
23.9184	72.16
23.9286	71.99
23.9388	71.75
23.9489	70.46
23.9591	72.18
23.9693	73.05
23.9794	71.23
23.9896	70.92
23.9997	70.74
24.0099	70.65
24.0201	71.20
24.0302	70.42
24.0404	68.58
24.0506	69.92
24.0607	69.88
24.0709	68.74
24.0811	69.80
24.0912	68.67
24.1014	68.58
24.1116	69.23
24.1217	68.85
24.1319	68.99
24.1421	67.16
24.1522	67.46
24.1624	69.02
24.1725	67.18
24.1827	66.35
24.1929	66.65
24.203	68.59
24.2132	66.35
24.2234	65.70
24.2335	68.26
24.2437	66.40
24.2539	65.13
24.264	65.59
24.2742	66.03
24.2844	65.65
24.2945	67.08
24.3047	65.69
24.3148	65.49
24.325	65.74
24.3352	64.43
24.3453	65.17
24.3555	64.88
24.3657	65.35
24.3758	64.23
24.386	64.96
24.3962	64.33
24.4063	64.16
24.4165	65.13
24.4267	63.85
24.4368	63.93
24.447	63.35
24.4572	64.21
24.4673	63.80
24.4775	63.93
24.4876	63.05
24.4978	64.36
24.508	64.18
24.5181	63.66
24.5283	63.82
24.5385	62.74
24.5486	62.30
24.5588	63.06
24.569	62.47
24.5791	62.53
24.5893	62.55
24.5995	61.71
24.6096	61.98
24.6198	62.97
24.6299	62.34
24.6401	62.39
24.6503	62.20
24.6604	61.47
24.6706	61.87
24.6808	61.38
24.6909	61.87
24.7011	60.88
24.7113	60.87
24.7214	60.22
24.7316	62.20
24.7418	60.62
24.7519	60.94
24.7621	60.52
24.7723	60.99
24.7824	61.45
24.7926	60.35
24.8027	59.49
24.8129	59.49
24.8231	60.65
24.8332	60.16
24.8434	59.91
24.8536	60.10
24.8637	60.70
24.8739	59.74
24.8841	59.05
24.8942	59.54
24.9044	58.66
24.9146	59.72
24.9247	57.51
24.9349	59.52
24.945	58.93
24.9552	59.98
24.9654	59.54
24.9755	58.87
24.9857	59.72
24.9959	59.01
25.006	58.15
25.0162	58.68
25.0264	59.11
25.0365	58.50
25.0467	58.16
25.0569	59.06
25.067	58.50
25.0772	58.70
25.0874	58.61
25.0975	58.59
25.1077	58.20
25.1178	56.96
25.128	59.27
25.1382	57.20
25.1483	58.03
25.1585	58.12
25.1687	57.54
25.1788	58.46
25.189	57.91
25.1992	57.02
25.2093	57.09
25.2195	57.62
25.2297	58.95
25.2398	57.24
25.25	56.74
25.2601	57.15
25.2703	57.64
25.2805	58.10
25.2906	57.46
25.3008	57.77
25.311	56.09
25.3211	55.96
25.3313	57.73
25.3415	56.77
25.3516	56.52
25.3618	55.44
25.372	57.20
25.3821	56.24
25.3923	56.81
25.4024	57.34
25.4126	56.29
25.4228	56.34
25.4329	56.23
25.4431	55.47
25.4533	56.58
25.4634	56.55
25.4736	55.46
25.4838	56.97
25.4939	55.87
25.5041	57.18
25.5143	55.69
25.5244	55.46
25.5346	55.40
25.5448	55.66
25.5549	55.01
25.5651	55.21
25.5752	55.54
25.5854	56.34
25.5956	55.21
25.6057	54.22
25.6159	55.20
25.6261	55.23
25.6362	54.38
25.6464	53.99
25.6566	55.09
25.6667	54.08
25.6769	54.12
25.6871	55.51
25.6972	55.20
25.7074	54.57
25.7175	54.61
25.7277	54.18
25.7379	53.75
25.748	55.13
25.7582	54.90
25.7684	54.38
25.7785	54.59
25.7887	53.32
25.7989	54.30
25.809	54.30
25.8192	54.85
25.8294	52.49
25.8395	53.59
25.8497	53.40
25.8599	53.33
25.87	54.58
25.8802	54.23
25.8903	54.01
25.9005	53.60
25.9107	52.70
25.9208	53.31
25.931	53.57
25.9412	53.27
25.9513	53.34
25.9615	54.04
25.9717	53.37
25.9818	52.73
25.992	53.54
26.0022	52.31
26.0123	52.30
26.0225	52.98
26.0326	53.09
26.0428	53.69
26.053	52.48
26.0631	52.74
26.0733	51.93
26.0835	52.84
26.0936	52.15
26.1038	52.93
26.114	52.13
26.1241	53.09
26.1343	52.68
26.1445	52.29
26.1546	52.37
26.1648	51.60
26.175	51.15
26.1851	51.75
26.1953	51.46
26.2054	52.42
26.2156	51.95
26.2258	51.81
26.2359	51.27
26.2461	51.59
26.2563	51.10
26.2664	52.18
26.2766	50.98
26.2868	51.69
26.2969	50.18
26.3071	52.88
26.3173	51.59
26.3274	51.28
26.3376	51.15
26.3477	51.55
26.3579	50.69
26.3681	51.21
26.3782	50.75
26.3884	51.11
26.3986	51.48
26.4087	51.39
26.4189	50.54
26.4291	51.20
26.4392	50.73
26.4494	50.70
26.4596	50.38
26.4697	50.37
26.4799	49.84
26.4901	51.07
26.5002	50.98
26.5104	51.58
26.5205	50.60
26.5307	49.31
26.5409	50.19
26.551	50.66
26.5612	50.24
26.5714	50.20
26.5815	50.61
26.5917	50.68
26.6019	50.59
26.612	50.81
26.6222	49.91
26.6324	50.63
26.6425	50.02
26.6527	49.49
26.6628	50.97
26.673	50.70
26.6832	50.05
26.6933	50.14
26.7035	49.52
26.7137	49.83
26.7238	49.95
26.734	50.00
26.7442	49.83
26.7543	50.33
26.7645	49.32
26.7747	50.05
26.7848	49.95
26.795	50.32
26.8052	49.76
26.8153	50.45
26.8255	49.85
26.8356	49.03
26.8458	50.23
26.856	50.78
26.8661	48.97
26.8763	48.89
26.8865	48.52
26.8966	49.71
26.9068	48.37
26.917	49.93
26.9271	49.70
26.9373	49.24
26.9475	49.13
26.9576	48.40
26.9678	49.55
26.9779	50.11
26.9881	49.71
26.9983	49.44
27.0084	49.89
27.0186	48.33
27.0288	48.62
27.0389	49.21
27.0491	48.91
27.0593	49.11
27.0694	49.54
27.0796	49.23
27.0898	49.63
27.0999	49.16
27.1101	49.53
27.1202	49.35
27.1304	49.12
27.1406	49.07
27.1507	49.70
27.1609	49.78
27.1711	47.91
27.1812	49.47
27.1914	48.71
27.2016	49.71
27.2117	49.87
27.2219	48.24
27.2321	47.76
27.2422	50.48
27.2524	48.37
27.2626	49.15
27.2727	49.05
27.2829	49.04
27.293	48.47
27.3032	48.62
27.3134	50.27
27.3235	50.13
27.3337	49.37
27.3439	49.49
27.354	49.32
27.3642	49.99
27.3744	49.18
27.3845	50.47
27.3947	49.57
27.4049	51.04
27.415	48.80
27.4252	48.94
27.4353	50.59
27.4455	49.91
27.4557	50.62
27.4658	50.03
27.476	49.49
27.4862	50.41
27.4963	49.48
27.5065	50.00
27.5167	49.95
27.5268	50.21
27.537	50.58
27.5472	50.95
27.5573	51.19
27.5675	50.36
27.5777	49.99
27.5878	51.04
27.598	50.46
27.6081	50.57
27.6183	50.70
27.6285	52.03
27.6386	50.68
27.6488	50.96
27.659	51.14
27.6691	51.09
27.6793	51.44
27.6895	50.79
27.6996	51.23
27.7098	51.16
27.72	51.90
27.7301	52.26
27.7403	51.24
27.7504	52.98
27.7606	53.62
27.7708	51.35
27.7809	53.46
27.7911	51.51
27.8013	53.56
27.8114	53.26
27.8216	52.93
27.8318	53.66
27.8419	53.48
27.8521	54.86
27.8623	54.34
27.8724	54.57
27.8826	55.29
27.8928	54.57
27.9029	55.70
27.9131	54.76
27.9232	55.52
27.9334	55.29
27.9436	55.48
27.9537	55.96
27.9639	55.93
27.9741	56.00
27.9842	56.12
27.9944	56.97
28.0046	57.16
28.0147	58.19
28.0249	56.29
28.0351	57.27
28.0452	57.20
28.0554	57.76
28.0655	58.46
28.0757	58.81
28.0859	59.70
28.096	58.09
28.1062	57.83
28.1164	59.67
28.1265	58.27
28.1367	60.44
28.1469	59.54
28.157	59.32
28.1672	59.76
28.1774	60.30
28.1875	60.85
28.1977	61.65
28.2079	60.95
28.218	60.84
28.2282	60.48
28.2383	61.62
28.2485	62.46
28.2587	61.16
28.2688	61.20
28.279	60.77
28.2892	60.71
28.2993	61.90
28.3095	62.08
28.3197	62.21
28.3298	61.49
28.34	61.67
28.3502	61.13
28.3603	61.52
28.3705	61.16
28.3806	62.90
28.3908	60.76
28.401	62.01
28.4111	60.88
28.4213	61.29
28.4315	61.34
28.4416	62.62
28.4518	61.04
28.462	60.77
28.4721	62.52
28.4823	60.35
28.4925	60.68
28.5026	60.34
28.5128	60.51
28.523	60.07
28.5331	61.28
28.5433	60.54
28.5534	59.80
28.5636	59.36
28.5738	59.86
28.5839	59.79
28.5941	59.08
28.6043	59.30
28.6144	58.82
28.6246	59.23
28.6348	59.52
28.6449	58.55
28.6551	58.75
28.6653	59.32
28.6754	58.57
28.6856	58.75
28.6957	58.35
28.7059	59.79
28.7161	57.20
28.7262	57.40
28.7364	57.32
28.7466	56.31
28.7567	57.02
28.7669	55.77
28.7771	56.50
28.7872	56.12
28.7974	55.38
28.8076	55.81
28.8177	56.48
28.8279	54.49
28.8381	55.16
28.8482	54.21
28.8584	53.77
28.8685	53.64
28.8787	54.70
28.8889	54.25
28.899	53.48
28.9092	53.55
28.9194	53.27
28.9295	53.15
28.9397	53.52
28.9499	52.44
28.96	51.96
28.9702	52.37
28.9804	51.34
28.9905	52.40
29.0007	52.35
29.0108	51.62
29.021	51.50
29.0312	51.24
29.0413	50.45
29.0515	50.91
29.0617	50.83
29.0718	50.17
29.082	50.10
29.0922	48.89
29.1023	50.16
29.1125	50.57
29.1227	49.01
29.1328	49.40
29.143	49.73
29.1531	48.40
29.1633	47.33
29.1735	49.66
29.1836	49.17
29.1938	48.80
29.204	48.65
29.2141	48.20
29.2243	48.32
29.2345	47.85
29.2446	47.55
29.2548	48.10
29.265	48.46
29.2751	47.88
29.2853	47.19
29.2955	48.17
29.3056	46.77
29.3158	46.48
29.3259	45.91
29.3361	46.55
29.3463	46.56
29.3564	46.20
29.3666	46.60
29.3768	45.80
29.3869	46.57
29.3971	46.96
29.4073	46.66
29.4174	45.73
29.4276	47.16
29.4378	45.65
29.4479	44.73
29.4581	46.48
29.4682	44.65
29.4784	44.13
29.4886	44.62
29.4987	44.68
29.5089	45.43
29.5191	44.37
29.5292	44.84
29.5394	44.52
29.5496	44.69
29.5597	44.76
29.5699	44.36
29.5801	43.24
29.5902	43.71
29.6004	44.16
29.6106	44.22
29.6207	43.13
29.6309	44.80
29.641	44.96
29.6512	44.30
29.6614	43.80
29.6715	43.56
29.6817	44.05
29.6919	44.39
29.702	43.58
29.7122	42.86
29.7224	42.67
29.7325	44.68
29.7427	43.24
29.7529	42.94
29.763	43.18
29.7732	43.14
29.7833	42.95
29.7935	43.44
29.8037	42.66
29.8138	43.90
29.824	42.76
29.8342	42.73
29.8443	42.70
29.8545	43.02
29.8647	42.84
29.8748	43.65
29.885	42.65
29.8952	41.59
29.9053	42.67
29.9155	41.81
29.9257	41.45
29.9358	42.60
29.946	42.13
29.9561	42.13
29.9663	41.76
29.9765	41.45
29.9866	41.96
29.9968	41.60
30.007	41.46
30.0171	40.73
30.0273	41.56
30.0375	41.75
30.0476	41.93
30.0578	41.19
30.068	40.28
30.0781	40.74
30.0883	40.58
30.0984	40.91
30.1086	40.05
30.1188	40.80
30.1289	40.68
30.1391	40.99
30.1493	39.96
30.1594	39.68
30.1696	40.23
30.1798	39.91
30.1899	40.28
30.2001	40.13
30.2103	40.72
30.2204	39.89
30.2306	40.64
30.2408	39.86
30.2509	39.07
30.2611	38.71
30.2712	39.59
30.2814	40.65
30.2916	38.58
30.3017	38.12
30.3119	39.10
30.3221	38.93
30.3322	38.82
30.3424	38.73
30.3526	38.71
30.3627	38.54
30.3729	38.32
30.3831	38.34
30.3932	38.60
30.4034	38.50
30.4135	38.18
30.4237	37.33
30.4339	38.00
30.444	37.71
30.4542	37.87
30.4644	37.66
30.4745	37.67
30.4847	37.21
30.4949	37.91
30.505	36.40
30.5152	38.08
30.5254	37.68
30.5355	36.51
30.5457	36.80
30.5559	38.02
30.566	37.25
30.5762	37.50
30.5863	37.04
30.5965	35.73
30.6067	36.79
30.6168	36.57
30.627	36.29
30.6372	36.35
30.6473	37.05
30.6575	36.71
30.6677	36.14
30.6778	36.99
30.688	36.75
30.6982	36.49
30.7083	36.56
30.7185	35.79
30.7286	35.85
30.7388	36.53
30.749	35.72
30.7591	36.21
30.7693	35.89
30.7795	36.01
30.7896	35.76
30.7998	35.49
30.81	36.27
30.8201	35.18
30.8303	35.35
30.8405	35.89
30.8506	34.87
30.8608	35.16
30.871	36.27
30.8811	35.45
30.8913	35.77
30.9014	35.13
30.9116	34.90
30.9218	35.69
30.9319	34.60
30.9421	34.90
30.9523	34.87
30.9624	34.84
30.9726	34.26
30.9828	34.53
30.9929	34.71
31.0031	34.79
31.0133	35.65
31.0234	34.79
31.0336	34.27
31.0437	35.32
31.0539	34.53
31.0641	34.49
31.0742	35.40
31.0844	34.97
31.0946	34.76
31.1047	35.28
31.1149	33.79
31.1251	34.15
31.1352	33.72
31.1454	34.04
31.1556	34.38
31.1657	34.21
31.1759	33.87
31.186	33.98
31.1962	35.12
31.2064	34.85
31.2165	34.68
31.2267	33.96
31.2369	34.04
31.247	34.60
31.2572	35.04
31.2674	33.05
31.2775	34.08
31.2877	34.55
31.2979	34.10
31.308	33.27
31.3182	33.92
31.3284	33.26
31.3385	33.96
31.3487	33.40
31.3588	33.57
31.369	33.22
31.3792	33.29
31.3893	33.15
31.3995	33.18
31.4097	33.23
31.4198	33.23
31.43	33.65
31.4402	32.95
31.4503	32.68
31.4605	33.38
31.4707	32.63
31.4808	33.62
31.491	33.12
31.5011	34.10
31.5113	33.60
31.5215	33.09
31.5316	33.72
31.5418	33.35
31.552	32.85
31.5621	32.95
31.5723	32.82
31.5825	32.28
31.5926	33.27
31.6028	33.05
31.613	33.62
31.6231	32.78
31.6333	33.78
31.6435	33.49
31.6536	33.36
31.6638	33.20
31.6739	33.19
31.6841	32.68
31.6943	33.06
31.7044	32.82
31.7146	33.33
31.7248	32.32
31.7349	33.02
31.7451	32.88
31.7553	33.24
31.7654	32.61
31.7756	32.68
31.7858	32.49
31.7959	32.28
31.8061	32.34
31.8162	32.63
31.8264	33.05
31.8366	33.39
31.8467	32.99
31.8569	32.41
31.8671	32.56
31.8772	32.53
31.8874	32.76
31.8976	32.23
31.9077	33.11
31.9179	32.49
31.9281	33.23
31.9382	32.57
31.9484	32.29
31.9586	33.02
31.9687	32.28
31.9789	32.71
31.989	32.69
31.9992	32.51
32.0094	32.40
32.0195	32.98
32.0297	32.27
32.0399	32.02
32.05	32.61
32.0602	31.93
32.0704	32.01
32.0805	32.79
32.0907	32.10
32.1009	32.45
32.111	32.31
32.1212	32.50
32.1313	33.00
32.1415	32.05
32.1517	32.01
32.1618	31.97
32.172	32.16
32.1822	32.50
32.1923	32.43
32.2025	32.36
32.2127	32.08
32.2228	32.51
32.233	32.60
32.2432	32.21
32.2533	31.71
32.2635	32.03
32.2737	32.40
32.2838	32.86
32.294	32.61
32.3041	32.27
32.3143	31.07
32.3245	32.89
32.3346	32.57
32.3448	33.10
32.355	32.73
32.3651	31.87
32.3753	31.76
32.3855	32.87
32.3956	32.09
32.4058	33.08
32.416	32.34
32.4261	32.29
32.4363	33.32
32.4464	32.05
32.4566	31.39
32.4668	32.02
32.4769	31.51
32.4871	31.95
32.4973	31.41
32.5074	31.76
32.5176	31.76
32.5278	32.29
32.5379	32.18
32.5481	32.15
32.5583	31.72
32.5684	31.70
32.5786	31.51
32.5888	32.37
32.5989	31.81
32.6091	31.95
32.6192	31.93
32.6294	31.80
32.6396	31.95
32.6497	32.22
32.6599	31.82
32.6701	31.84
32.6802	32.44
32.6904	32.16
32.7006	31.54
32.7107	32.07
32.7209	31.03
32.7311	31.28
32.7412	31.79
32.7514	32.05
32.7615	31.10
32.7717	32.20
32.7819	31.54
32.792	31.67
32.8022	32.12
32.8124	31.85
32.8225	31.93
32.8327	31.54
32.8429	31.66
32.853	31.48
32.8632	31.64
32.8734	31.77
32.8835	32.84
32.8937	31.64
32.9039	32.10
32.914	31.34
32.9242	32.24
32.9343	32.16
32.9445	31.34
32.9547	31.86
32.9648	32.08
32.975	30.91
32.9852	32.76
32.9953	32.30
33.0055	32.48
33.0157	32.23
33.0258	31.65
33.036	32.38
33.0462	31.94
33.0563	32.46
33.0665	32.98
33.0766	32.37
33.0868	31.91
33.097	32.51
33.1071	33.12
33.1173	32.30
33.1275	32.48
33.1376	32.57
33.1478	31.43
33.158	32.23
33.1681	32.20
33.1783	31.49
33.1885	31.76
33.1986	32.22
33.2088	32.14
33.2189	32.08
33.2291	31.98
33.2393	32.15
33.2494	31.76
33.2596	32.01
33.2698	32.44
33.2799	31.54
33.2901	32.85
33.3003	32.74
33.3104	33.19
33.3206	31.96
33.3308	32.22
33.3409	31.67
33.3511	32.62
33.3613	31.94
33.3714	31.66
33.3816	32.47
33.3917	32.34
33.4019	32.41
33.4121	32.05
33.4222	30.72
33.4324	31.88
33.4426	32.30
33.4527	31.71
33.4629	31.57
33.4731	31.44
33.4832	31.79
33.4934	31.27
33.5036	31.52
33.5137	31.42
33.5239	31.59
33.534	32.10
33.5442	31.30
33.5544	31.15
33.5645	31.46
33.5747	31.99
33.5849	31.01
33.595	31.42
33.6052	30.24
33.6154	30.57
33.6255	31.57
33.6357	30.84
33.6459	30.95
33.656	31.20
33.6662	31.09
33.6764	31.09
33.6865	30.08
33.6967	30.89
33.7068	30.02
33.717	30.33
33.7272	29.96
33.7373	30.01
33.7475	30.10
33.7577	30.82
33.7678	28.96
33.778	29.86
33.7882	29.95
33.7983	29.18
33.8085	29.36
33.8187	28.91
33.8288	28.98
33.839	29.26
33.8491	29.66
33.8593	27.80
33.8695	28.73
33.8796	28.43
33.8898	28.93
33.9	28.34
33.9101	28.71
33.9203	28.59
33.9305	29.20
33.9406	28.41
33.9508	27.55
33.961	28.48
33.9711	29.13
33.9813	28.03
33.9915	28.62
34.0016	28.18
34.0118	28.97
34.0219	28.02
34.0321	27.15
34.0423	27.84
34.0524	27.29
34.0626	27.91
34.0728	27.54
34.0829	27.65
34.0931	27.82
34.1033	27.73
34.1134	27.35
34.1236	27.66
34.1338	27.37
34.1439	27.16
34.1541	27.60
34.1642	27.62
34.1744	27.51
34.1846	27.37
34.1947	27.33
34.2049	27.03
34.2151	27.26
34.2252	27.07
34.2354	26.51
34.2456	26.78
34.2557	27.12
34.2659	26.89
34.2761	27.24
34.2862	26.78
34.2964	27.01
34.3066	26.82
34.3167	27.16
34.3269	26.04
34.337	27.12
34.3472	26.99
34.3574	27.08
34.3675	27.51
34.3777	27.90
34.3879	26.98
34.398	26.51
34.4082	27.03
34.4184	27.21
34.4285	25.80
34.4387	26.06
34.4489	26.24
34.459	26.24
34.4692	26.55
34.4793	26.73
34.4895	27.40
34.4997	27.38
34.5098	27.46
34.52	26.50
34.5302	26.26
34.5403	27.15
34.5505	25.92
34.5607	25.90
34.5708	26.93
34.581	26.66
34.5912	27.12
34.6013	26.40
34.6115	26.35
34.6217	26.27
34.6318	26.03
34.642	25.78
34.6521	26.96
34.6623	26.79
34.6725	26.34
34.6826	26.71
34.6928	26.49
34.703	25.88
34.7131	25.91
34.7233	25.73
34.7335	25.74
34.7436	26.68
34.7538	25.23
34.764	26.03
34.7741	25.96
34.7843	25.75
34.7944	25.34
34.8046	26.58
34.8148	26.02
34.8249	26.11
34.8351	25.48
34.8453	26.21
34.8554	26.33
34.8656	26.41
34.8758	25.41
34.8859	25.81
34.8961	25.98
34.9063	26.12
34.9164	25.67
34.9266	25.78
34.9367	26.04
34.9469	25.87
34.9571	26.04
34.9672	25.13
34.9774	26.09
34.9876	25.34
34.9977	25.30
35.0079	25.77
35.0181	25.29
35.0282	25.26
35.0384	25.71
35.0486	25.74
35.0587	25.52
35.0689	25.15
35.0791	25.17
35.0892	25.96
35.0994	25.31
35.1095	26.10
35.1197	25.89
35.1299	26.22
35.14	25.40
35.1502	25.77
35.1604	25.99
35.1705	26.12
35.1807	25.55
35.1909	25.43
35.201	25.64
35.2112	25.52
35.2214	25.34
35.2315	25.78
35.2417	25.26
35.2518	25.29
35.262	25.77
35.2722	25.65
35.2823	25.11
35.2925	26.29
35.3027	25.40
35.3128	25.30
35.323	25.25
35.3332	26.05
35.3433	25.09
35.3535	25.59
35.3637	24.63
35.3738	25.20
35.384	25.60
35.3942	26.38
35.4043	24.38
35.4145	25.04
35.4246	25.66
35.4348	25.85
35.445	25.29
35.4551	24.90
35.4653	25.24
35.4755	25.59
35.4856	24.57
35.4958	25.05
35.506	25.24
35.5161	24.74
35.5263	24.95
35.5365	24.67
35.5466	24.98
35.5568	25.57
35.5669	24.65
35.5771	23.84
35.5873	24.60
35.5974	25.13
35.6076	25.12
35.6178	25.13
35.6279	25.29
35.6381	25.61
35.6483	24.72
35.6584	25.09
35.6686	24.93
35.6788	25.12
35.6889	24.80
35.6991	24.70
35.7093	25.49
35.7194	24.91
35.7296	25.16
35.7397	25.03
35.7499	25.97
35.7601	24.32
35.7702	24.65
35.7804	24.84
35.7906	24.56
35.8007	24.87
35.8109	25.61
35.8211	24.90
35.8312	24.06
35.8414	25.21
35.8516	24.06
35.8617	24.05
35.8719	24.74
35.882	25.20
35.8922	24.38
35.9024	25.14
35.9125	24.53
35.9227	24.47
35.9329	25.09
35.943	25.25
35.9532	25.85
35.9634	25.09
35.9735	24.74
35.9837	24.95
35.9939	25.32
36.004	24.85
36.0142	25.00
36.0244	25.87
36.0345	24.66
36.0447	24.54
36.0548	25.45
36.065	24.03
36.0752	25.65
36.0853	25.14
36.0955	25.04
36.1057	24.33
36.1158	24.41
36.126	24.98
36.1362	24.40
36.1463	24.50
36.1565	24.13
36.1667	24.60
36.1768	24.35
36.187	24.46
36.1971	24.85
36.2073	24.35
36.2175	25.13
36.2276	24.73
36.2378	24.87
36.248	25.71
36.2581	25.11
36.2683	24.98
36.2785	24.25
36.2886	24.60
36.2988	24.97
36.309	24.79
36.3191	24.37
36.3293	24.55
36.3395	25.04
36.3496	24.30
36.3598	25.28
36.3699	25.00
36.3801	24.67
36.3903	25.15
36.4004	24.92
36.4106	24.74
36.4208	24.95
36.4309	25.34
36.4411	25.01
36.4513	25.84
36.4614	25.38
36.4716	25.02
36.4818	24.98
36.4919	25.12
36.5021	25.60
36.5122	25.48
36.5224	24.43
36.5326	24.99
36.5427	24.09
36.5529	24.68
36.5631	24.65
36.5732	25.00
36.5834	24.77
36.5936	24.82
36.6037	25.26
36.6139	24.45
36.6241	24.59
36.6342	24.93
36.6444	25.37
36.6546	25.18
36.6647	25.01
36.6749	25.07
36.685	24.68
36.6952	24.19
36.7054	24.40
36.7155	25.32
36.7257	25.02
36.7359	25.15
36.746	24.77
36.7562	25.54
36.7664	25.04
36.7765	24.53
36.7867	24.24
36.7969	25.61
36.807	25.30
36.8172	24.71
36.8273	25.24
36.8375	25.08
36.8477	25.63
36.8578	25.09
36.868	25.70
36.8782	25.67
36.8883	25.25
36.8985	24.66
36.9087	25.08
36.9188	25.10
36.929	25.08
36.9392	25.09
36.9493	25.27
36.9595	25.12
36.9696	24.63
36.9798	24.23
36.99	25.66
37.0001	25.26
37.0103	25.63
37.0205	25.26
37.0306	25.93
37.0408	25.80
37.051	25.06
37.0611	25.76
37.0713	25.15
37.0815	25.24
37.0916	25.52
37.1018	25.53
37.112	25.77
37.1221	25.95
37.1323	24.68
37.1424	25.32
37.1526	25.18
37.1628	24.94
37.1729	25.62
37.1831	25.73
37.1933	25.63
37.2034	25.36
37.2136	26.20
37.2238	25.32
37.2339	25.67
37.2441	25.74
37.2543	26.12
37.2644	25.73
37.2746	25.70
37.2847	25.27
37.2949	26.34
37.3051	26.55
37.3152	26.20
37.3254	26.04
37.3356	25.19
37.3457	26.73
37.3559	25.80
37.3661	26.50
37.3762	25.27
37.3864	27.38
37.3966	26.32
37.4067	25.65
37.4169	26.43
37.4271	26.88
37.4372	25.82
37.4474	25.82
37.4575	26.46
37.4677	26.02
37.4779	26.62
37.488	27.30
37.4982	26.54
37.5084	26.19
37.5185	25.82
37.5287	25.79
37.5389	27.13
37.549	26.45
37.5592	26.20
37.5694	26.57
37.5795	26.87
37.5897	26.43
37.5998	26.65
37.61	26.81
37.6202	26.73
37.6303	26.74
37.6405	27.01
37.6507	26.65
37.6608	26.70
37.671	27.12
37.6812	26.30
37.6913	26.85
37.7015	27.00
37.7117	26.98
37.7218	26.68
37.732	26.80
37.7422	27.17
37.7523	26.55
37.7625	26.54
37.7726	26.59
37.7828	27.82
37.793	26.78
37.8031	27.66
37.8133	27.15
37.8235	27.51
37.8336	27.54
37.8438	27.52
37.854	27.87
37.8641	27.58
37.8743	27.17
37.8845	27.32
37.8946	27.42
37.9048	27.52
37.9149	27.46
37.9251	28.01
37.9353	27.86
37.9454	27.37
37.9556	27.74
37.9658	27.59
37.9759	27.61
37.9861	27.50
37.9963	27.77
38.0064	28.10
38.0166	27.22
38.0268	28.19
38.0369	28.04
38.0471	28.01
38.0573	28.59
38.0674	28.01
38.0776	28.23
38.0877	28.32
38.0979	28.30
38.1081	28.14
38.1182	28.49
38.1284	28.29
38.1386	27.73
38.1487	28.09
38.1589	28.29
38.1691	28.12
38.1792	28.61
38.1894	28.00
38.1996	28.36
38.2097	28.49
38.2199	27.95
38.23	28.01
38.2402	28.15
38.2504	29.23
38.2605	28.42
38.2707	29.21
38.2809	28.66
38.291	28.12
38.3012	28.27
38.3114	28.46
38.3215	28.55
38.3317	28.66
38.3419	28.05
38.352	28.68
38.3622	27.88
38.3724	28.32
38.3825	28.43
38.3927	28.27
38.4028	28.90
38.413	28.56
38.4232	28.10
38.4333	29.26
38.4435	28.11
38.4537	28.84
38.4638	28.30
38.474	28.55
38.4842	28.62
38.4943	28.09
38.5045	28.57
38.5147	28.17
38.5248	28.27
38.535	28.77
38.5451	27.59
38.5553	29.06
38.5655	28.04
38.5756	28.79
38.5858	28.70
38.596	28.51
38.6061	28.42
38.6163	28.47
38.6265	27.65
38.6366	28.42
38.6468	28.03
38.657	28.26
38.6671	29.09
38.6773	27.84
38.6875	28.62
38.6976	27.96
38.7078	28.15
38.7179	28.05
38.7281	28.79
38.7383	28.71
38.7484	27.05
38.7586	28.71
38.7688	28.62
38.7789	27.96
38.7891	28.63
38.7993	28.62
38.8094	28.70
38.8196	28.37
38.8298	27.67
38.8399	28.49
38.8501	28.22
38.8602	27.49
38.8704	27.91
38.8806	28.22
38.8907	27.73
38.9009	27.64
38.9111	27.65
38.9212	27.72
38.9314	28.16
38.9416	27.79
38.9517	27.94
38.9619	27.30
38.9721	27.76
38.9822	27.74
38.9924	27.93
39.0025	26.98
39.0127	27.65
39.0229	27.27
39.033	27.45
39.0432	28.15
39.0534	27.16
39.0635	27.01
39.0737	27.71
39.0839	27.82
39.094	26.56
39.1042	27.44
39.1144	27.35
39.1245	27.20
39.1347	27.06
39.1449	27.15
39.155	27.17
39.1652	27.42
39.1753	27.01
39.1855	26.67
39.1957	26.85
39.2058	26.52
39.216	27.27
39.2262	27.37
39.2363	26.07
39.2465	28.13
39.2567	26.85
39.2668	27.63
39.277	26.24
39.2872	25.81
39.2973	26.91
39.3075	26.43
39.3176	26.29
39.3278	26.23
39.338	26.44
39.3481	26.29
39.3583	26.16
39.3685	27.09
39.3786	26.99
39.3888	26.09
39.399	26.43
39.4091	26.15
39.4193	25.74
39.4295	27.06
39.4396	26.82
39.4498	25.73
39.46	26.31
39.4701	27.02
39.4803	25.62
39.4904	26.07
39.5006	26.99
39.5108	26.00
39.5209	26.43
39.5311	25.25
39.5413	25.71
39.5514	25.84
39.5616	25.79
39.5718	26.48
39.5819	25.14
39.5921	25.21
39.6023	25.73
39.6124	26.45
39.6226	25.29
39.6327	25.75
39.6429	25.88
39.6531	25.13
39.6632	25.27
39.6734	24.80
39.6836	25.48
39.6937	25.28
39.7039	25.61
39.7141	25.90
39.7242	25.52
39.7344	25.61
39.7446	25.49
39.7547	24.85
39.7649	24.70
39.7751	25.20
39.7852	25.05
39.7954	25.05
39.8055	24.96
39.8157	25.10
39.8259	25.24
39.836	25.26
39.8462	25.45
39.8564	24.58
39.8665	24.84
39.8767	25.09
39.8869	25.94
39.897	25.23
39.9072	24.44
39.9174	25.03
39.9275	25.20
39.9377	25.07
39.9478	24.91
39.958	25.43
39.9682	25.54
39.9783	25.47
39.9885	25.40
39.9987	25.51
40.0088	25.39
