5.0023	55.84
5.0125	54.22
5.0226	53.41
5.0328	52.69
5.043	52.60
5.0531	51.26
5.0633	49.51
5.0735	48.73
5.0836	47.93
5.0938	47.34
5.1039	47.42
5.1141	46.82
5.1243	46.27
5.1344	45.80
5.1446	44.41
5.1548	43.32
5.1649	43.63
5.1751	42.78
5.1853	42.70
5.1954	41.60
5.2056	41.70
5.2158	40.87
5.2259	40.11
5.2361	38.42
5.2462	38.83
5.2564	38.02
5.2666	37.68
5.2767	36.64
5.2869	36.13
5.2971	36.54
5.3072	36.44
5.3174	35.98
5.3276	35.37
5.3377	34.59
5.3479	34.32
5.3581	33.76
5.3682	32.95
5.3784	33.02
5.3886	33.54
5.3987	31.43
5.4089	32.29
5.419	31.39
5.4292	32.48
5.4394	30.66
5.4495	30.27
5.4597	30.05
5.4699	29.65
5.48	29.78
5.4902	29.09
5.5004	29.37
5.5105	29.07
5.5207	28.49
5.5309	28.61
5.541	29.02
5.5512	27.68
5.5613	26.46
5.5715	27.66
5.5817	27.37
5.5918	26.80
5.602	27.20
5.6122	26.37
5.6223	27.61
5.6325	26.10
5.6427	25.51
5.6528	24.80
5.663	25.41
5.6732	24.95
5.6833	24.37
5.6935	24.81
5.7036	24.46
5.7138	24.75
5.724	24.30
5.7341	24.00
5.7443	23.20
5.7545	24.16
5.7646	23.79
5.7748	22.93
5.785	22.78
5.7951	23.09
5.8053	23.15
5.8155	23.32
5.8256	23.46
5.8358	24.02
5.846	23.38
5.8561	22.63
5.8663	22.80
5.8764	23.15
5.8866	22.66
5.8968	23.25
5.9069	23.73
5.9171	23.12
5.9273	23.02
5.9374	23.23
5.9476	21.97
5.9578	21.83
5.9679	21.40
5.9781	22.08
5.9883	22.54
5.9984	22.04
6.0086	21.73
6.0187	22.12
6.0289	21.79
6.0391	22.16
6.0492	21.77
6.0594	21.55
6.0696	22.38
6.0797	22.20
6.0899	21.63
6.1001	21.85
6.1102	21.93
6.1204	22.04
6.1306	22.06
6.1407	22.33
6.1509	21.75
6.1611	21.65
6.1712	21.35
6.1814	21.93
6.1915	21.09
6.2017	21.52
6.2119	21.45
6.222	21.57
6.2322	21.80
6.2424	21.24
6.2525	21.18
6.2627	21.32
6.2729	21.60
6.283	22.00
6.2932	21.56
6.3034	20.80
6.3135	21.65
6.3237	21.41
6.3338	21.64
6.344	21.66
6.3542	22.18
6.3643	21.90
6.3745	20.86
6.3847	21.20
6.3948	21.10
6.405	21.73
6.4152	21.05
6.4253	20.93
6.4355	21.44
6.4457	21.28
6.4558	20.62
6.466	21.17
6.4762	20.77
6.4863	20.90
6.4965	21.73
6.5066	21.63
6.5168	21.22
6.527	21.65
6.5371	20.96
6.5473	21.60
6.5575	21.01
6.5676	21.04
6.5778	21.66
6.588	21.69
6.5981	21.35
6.6083	20.95
6.6185	21.63
6.6286	21.30
6.6388	22.00
6.6489	21.21
6.6591	20.98
6.6693	22.01
6.6794	20.95
6.6896	21.40
6.6998	21.04
6.7099	21.55
6.7201	21.43
6.7303	21.66
6.7404	21.70
6.7506	21.23
6.7608	21.85
6.7709	22.41
6.7811	21.32
6.7913	21.20
6.8014	21.99
6.8116	21.62
6.8217	21.83
6.8319	21.48
6.8421	21.34
6.8522	21.72
6.8624	21.76
6.8726	21.70
6.8827	20.82
6.8929	20.54
6.9031	21.24
6.9132	21.94
6.9234	21.12
6.9336	21.00
6.9437	21.74
6.9539	22.07
6.964	22.54
6.9742	20.82
6.9844	21.45
6.9945	21.76
7.0047	20.27
7.0149	22.07
7.025	21.93
7.0352	21.48
7.0454	22.04
7.0555	21.91
7.0657	22.02
7.0759	21.63
7.086	21.61
7.0962	22.04
7.1064	21.83
7.1165	22.05
7.1267	21.91
7.1368	22.04
7.147	22.18
7.1572	22.43
7.1673	22.41
7.1775	21.88
7.1877	21.79
7.1978	22.20
7.208	21.87
7.2182	21.01
7.2283	22.02
7.2385	21.97
7.2487	22.31
7.2588	22.09
7.269	21.76
7.2791	22.02
7.2893	22.23
7.2995	22.37
7.3096	22.18
7.3198	21.94
7.33	21.82
7.3401	22.08
7.3503	22.28
7.3605	21.82
7.3706	22.68
7.3808	22.57
7.391	22.81
7.4011	22.84
7.4113	23.04
7.4215	22.76
7.4316	22.62
7.4418	22.15
7.4519	22.40
7.4621	22.50
7.4723	23.30
7.4824	22.30
7.4926	22.70
7.5028	22.48
7.5129	23.24
7.5231	23.46
7.5333	21.76
7.5434	21.77
7.5536	23.91
7.5638	22.74
7.5739	23.33
7.5841	22.68
7.5942	22.28
7.6044	22.91
7.6146	22.12
7.6247	23.32
7.6349	23.21
7.6451	22.16
7.6552	22.34
7.6654	22.09
7.6756	22.52
7.6857	22.64
7.6959	22.15
7.7061	23.49
7.7162	22.70
7.7264	22.97
7.7365	23.51
7.7467	23.35
7.7569	22.69
7.767	23.23
7.7772	22.59
7.7874	23.05
7.7975	23.66
7.8077	23.12
7.8179	23.28
7.828	23.55
7.8382	23.24
7.8484	22.69
7.8585	23.04
7.8687	23.46
7.8789	23.01
7.889	23.55
7.8992	23.22
7.9093	23.31
7.9195	23.61
7.9297	23.49
7.9398	24.32
7.95	23.74
7.9602	23.35
7.9703	23.12
7.9805	23.04
7.9907	22.62
8.0008	23.88
8.011	23.55
8.0212	23.02
8.0313	23.37
8.0415	23.66
8.0516	22.97
8.0618	23.45
8.072	23.60
8.0821	23.23
8.0923	23.32
8.1025	23.03
8.1126	24.98
8.1228	24.11
8.133	24.02
8.1431	24.37
8.1533	24.10
8.1635	24.02
8.1736	24.02
8.1838	24.50
8.194	23.85
8.2041	23.68
8.2143	24.66
8.2244	24.13
8.2346	24.23
8.2448	23.73
8.2549	24.32
8.2651	24.43
8.2753	23.99
8.2854	23.94
8.2956	24.13
8.3058	24.18
8.3159	24.33
8.3261	23.76
8.3363	24.18
8.3464	24.16
8.3566	24.24
8.3667	23.55
8.3769	24.46
8.3871	23.98
8.3972	24.40
8.4074	24.84
8.4176	24.34
8.4277	24.83
8.4379	24.59
8.4481	25.59
8.4582	24.78
8.4684	25.24
8.4786	24.85
8.4887	25.00
8.4989	24.98
8.5091	25.20
8.5192	25.04
8.5294	25.35
8.5395	25.51
8.5497	25.35
8.5599	25.10
8.57	24.34
8.5802	24.24
8.5904	24.44
8.6005	24.47
8.6107	25.03
8.6209	25.24
8.631	25.54
8.6412	25.44
8.6514	24.98
8.6615	25.29
8.6717	24.84
8.6818	24.73
8.692	25.34
8.7022	24.87
8.7123	24.87
8.7225	24.71
8.7327	25.24
8.7428	24.50
8.753	25.66
8.7632	25.53
8.7733	25.13
8.7835	24.71
8.7937	25.38
8.8038	25.64
8.814	24.98
8.8242	25.15
8.8343	25.23
8.8445	24.97
8.8546	25.30
8.8648	24.87
8.875	25.84
8.8851	25.58
8.8953	26.05
8.9055	26.74
8.9156	25.63
8.9258	25.39
8.936	26.70
8.9461	26.24
8.9563	25.44
8.9665	26.28
8.9766	26.20
8.9868	25.21
8.9969	26.26
9.0071	25.98
9.0173	26.76
9.0274	26.39
9.0376	25.49
9.0478	25.01
9.0579	25.70
9.0681	25.73
9.0783	25.77
9.0884	26.04
9.0986	26.42
9.1088	25.91
9.1189	26.01
9.1291	26.12
9.1393	26.26
9.1494	26.83
9.1596	26.07
9.1697	26.31
9.1799	27.43
9.1901	25.65
9.2002	26.91
9.2104	26.21
9.2206	26.07
9.2307	26.99
9.2409	27.09
9.2511	25.77
9.2612	28.01
9.2714	27.35
9.2816	26.16
9.2917	26.62
9.3019	26.73
9.312	26.66
9.3222	26.52
9.3324	27.53
9.3425	26.75
9.3527	26.64
9.3629	26.85
9.373	26.46
9.3832	27.16
9.3934	27.43
9.4035	26.26
9.4137	27.27
9.4239	27.56
9.434	27.01
9.4442	27.43
9.4544	27.07
9.4645	27.65
9.4747	27.79
9.4848	26.93
9.495	26.41
9.5052	28.23
9.5153	27.50
9.5255	26.87
9.5357	28.01
9.5458	28.11
9.556	27.56
9.5662	27.12
9.5763	27.05
9.5865	27.07
9.5967	27.50
9.6068	27.43
9.617	27.64
9.6271	27.68
9.6373	28.66
9.6475	27.29
9.6576	28.77
9.6678	28.35
9.678	27.90
9.6881	27.59
9.6983	27.35
9.7085	28.49
9.7186	27.13
9.7288	27.66
9.739	27.14
9.7491	28.02
9.7593	28.95
9.7694	27.76
9.7796	27.04
9.7898	27.96
9.7999	27.62
9.8101	28.36
9.8203	27.81
9.8304	28.04
9.8406	27.86
9.8508	28.17
9.8609	27.72
9.8711	28.98
9.8813	27.70
9.8914	28.35
9.9016	28.13
9.9118	28.70
9.9219	28.83
9.9321	28.96
9.9422	28.76
9.9524	28.29
9.9626	28.52
9.9727	28.61
9.9829	28.45
9.9931	28.15
10.0032	28.89
10.0134	28.28
10.0236	28.67
10.0337	28.79
10.0439	29.57
10.0541	28.18
10.0642	28.81
10.0744	28.35
10.0845	28.49
10.0947	28.34
10.1049	29.13
10.115	29.20
10.1252	28.82
10.1354	29.02
10.1455	29.39
10.1557	28.87
10.1659	29.05
10.176	29.04
10.1862	29.23
10.1964	28.80
10.2065	29.86
10.2167	29.16
10.2269	29.30
10.237	29.36
10.2472	29.58
10.2573	29.88
10.2675	29.75
10.2777	29.66
10.2878	29.59
10.298	29.40
10.3082	28.99
10.3183	30.45
10.3285	29.77
10.3387	29.45
10.3488	30.23
10.359	30.10
10.3692	29.36
10.3793	30.63
10.3895	30.05
10.3996	29.67
10.4098	29.73
10.42	29.95
10.4301	29.20
10.4403	30.19
10.4505	30.06
10.4606	30.32
10.4708	31.07
10.481	30.44
10.4911	28.80
10.5013	30.02
10.5115	29.52
10.5216	29.56
10.5318	30.06
10.542	29.98
10.5521	29.44
10.5623	29.82
10.5724	30.24
10.5826	30.45
10.5928	29.79
10.6029	30.66
10.6131	30.09
10.6233	30.39
10.6334	30.19
10.6436	30.84
10.6538	30.56
10.6639	31.28
10.6741	30.37
10.6843	29.91
10.6944	30.96
10.7046	30.77
10.7147	30.48
10.7249	30.78
10.7351	30.11
10.7452	31.77
10.7554	31.10
10.7656	31.11
10.7757	31.36
10.7859	31.46
10.7961	30.38
10.8062	31.51
10.8164	30.38
10.8266	31.65
10.8367	32.05
10.8469	31.70
10.8571	30.54
10.8672	31.13
10.8774	31.28
10.8875	31.11
10.8977	31.42
10.9079	32.96
10.918	31.97
10.9282	30.73
10.9384	31.66
10.9485	30.77
10.9587	32.17
10.9689	31.87
10.979	31.96
10.9892	32.12
10.9994	32.13
11.0095	31.20
11.0197	31.54
11.0298	32.65
11.04	31.52
11.0502	32.29
11.0603	31.62
11.0705	32.31
11.0807	32.03
11.0908	32.49
11.101	32.52
11.1112	32.98
11.1213	32.36
11.1315	31.71
11.1417	33.26
11.1518	31.60
11.162	31.82
11.1722	31.70
11.1823	32.32
11.1925	32.71
11.2026	32.36
11.2128	32.46
11.223	32.28
11.2331	32.20
11.2433	32.81
11.2535	32.68
11.2636	32.80
11.2738	32.80
11.284	33.41
11.2941	33.02
11.3043	33.16
11.3145	33.07
11.3246	33.12
11.3348	33.37
11.3449	32.62
11.3551	32.52
11.3653	32.82
11.3754	32.50
11.3856	33.29
11.3958	32.97
11.4059	33.20
11.4161	33.65
11.4263	33.48
11.4364	33.23
11.4466	33.09
11.4568	32.90
11.4669	34.02
11.4771	33.62
11.4873	33.73
11.4974	33.52
11.5076	34.39
11.5177	35.13
11.5279	34.63
11.5381	33.89
11.5482	33.77
11.5584	33.32
11.5686	34.74
11.5787	32.75
11.5889	33.93
11.5991	34.30
11.6092	34.35
11.6194	33.21
11.6296	33.97
11.6397	34.30
11.6499	34.14
11.66	34.48
11.6702	33.81
11.6804	34.69
11.6905	34.77
11.7007	33.25
11.7109	33.59
11.721	34.32
11.7312	34.61
11.7414	34.66
11.7515	33.98
11.7617	34.99
11.7719	34.85
11.782	35.33
11.7922	34.24
11.8023	35.87
11.8125	34.82
11.8227	34.93
11.8328	35.18
11.843	34.99
11.8532	34.67
11.8633	35.04
11.8735	35.29
11.8837	35.48
11.8938	35.50
11.904	36.20
11.9142	36.20
11.9243	34.82
11.9345	35.18
11.9447	35.74
11.9548	35.65
11.965	35.98
11.9751	36.20
11.9853	35.84
11.9955	36.13
12.0056	36.63
12.0158	35.77
12.026	35.86
12.0361	37.10
12.0463	35.55
12.0565	36.26
12.0666	36.84
12.0768	36.88
12.087	36.80
12.0971	36.82
12.1073	36.43
12.1174	36.71
12.1276	36.05
12.1378	35.99
12.1479	37.04
12.1581	35.94
12.1683	37.02
12.1784	36.73
12.1886	36.41
12.1988	36.49
12.2089	36.58
12.2191	37.27
12.2293	37.30
12.2394	37.71
12.2496	37.65
12.2598	36.87
12.2699	36.95
12.2801	36.43
12.2902	36.52
12.3004	37.99
12.3106	37.97
12.3207	37.84
12.3309	37.87
12.3411	36.65
12.3512	37.79
12.3614	38.02
12.3716	38.23
12.3817	37.82
12.3919	37.74
12.4021	37.55
12.4122	37.96
12.4224	39.11
12.4325	39.02
12.4427	38.30
12.4529	38.76
12.463	40.01
12.4732	39.24
12.4834	38.19
12.4935	38.86
12.5037	38.54
12.5139	39.01
12.524	39.44
12.5342	38.84
12.5444	39.02
12.5545	39.02
12.5647	39.24
12.5749	39.10
12.585	39.38
12.5952	39.49
12.6053	38.10
12.6155	39.18
12.6257	39.38
12.6358	39.52
12.646	39.38
12.6562	38.88
12.6663	39.48
12.6765	39.27
12.6867	39.62
12.6968	39.80
12.707	40.09
12.7172	39.91
12.7273	41.35
12.7375	39.74
12.7476	40.29
12.7578	40.50
12.768	40.85
12.7781	39.77
12.7883	39.43
12.7985	41.13
12.8086	41.41
12.8188	40.30
12.829	40.73
12.8391	40.76
12.8493	40.36
12.8595	39.91
12.8696	41.49
12.8798	41.07
12.89	42.11
12.9001	41.36
12.9103	41.34
12.9204	41.76
12.9306	41.91
12.9408	41.02
12.9509	41.93
12.9611	41.16
12.9713	40.73
12.9814	42.07
12.9916	42.83
13.0018	41.90
13.0119	41.71
13.0221	42.15
13.0323	41.83
13.0424	41.99
13.0526	42.37
13.0627	41.56
13.0729	42.23
13.0831	43.70
13.0932	42.96
13.1034	43.01
13.1136	41.88
13.1237	42.52
13.1339	43.33
13.1441	43.18
13.1542	43.15
13.1644	42.83
13.1746	42.80
13.1847	43.25
13.1949	44.07
13.2051	42.46
13.2152	43.41
13.2254	43.32
13.2355	44.06
13.2457	42.98
13.2559	43.57
13.266	44.55
13.2762	44.70
13.2864	44.35
13.2965	43.98
13.3067	44.32
13.3169	43.51
13.327	44.01
13.3372	43.84
13.3474	44.29
13.3575	44.16
13.3677	44.29
13.3778	44.29
13.388	44.99
13.3982	45.38
13.4083	45.26
13.4185	45.96
13.4287	44.65
13.4388	45.16
13.449	45.84
13.4592	46.04
13.4693	45.54
13.4795	44.20
13.4897	46.15
13.4998	45.24
13.51	46.07
13.5201	46.27
13.5303	46.31
13.5405	45.09
13.5506	46.34
13.5608	45.94
13.571	46.38
13.5811	46.49
13.5913	46.33
13.6015	46.16
13.6116	46.71
13.6218	47.63
13.632	46.42
13.6421	48.03
13.6523	47.37
13.6625	48.40
13.6726	47.28
13.6828	47.05
13.6929	48.24
13.7031	48.68
13.7133	47.50
13.7234	48.91
13.7336	48.57
13.7438	48.15
13.7539	46.40
13.7641	49.14
13.7743	47.45
13.7844	47.78
13.7946	48.68
13.8048	48.76
13.8149	48.53
13.8251	50.11
13.8352	48.91
13.8454	49.37
13.8556	49.34
13.8657	49.16
13.8759	49.65
13.8861	48.93
13.8962	49.09
13.9064	49.84
13.9166	50.83
13.9267	50.16
13.9369	49.53
13.9471	49.55
13.9572	49.95
13.9674	51.34
13.9776	49.73
13.9877	50.34
13.9979	51.55
14.008	50.98
14.0182	50.51
14.0284	49.26
14.0385	51.59
14.0487	50.76
14.0589	50.98
14.069	52.32
14.0792	51.54
14.0894	51.22
14.0995	52.43
14.1097	52.51
14.1199	51.77
14.13	52.26
14.1402	52.27
14.1503	51.97
14.1605	52.66
14.1707	52.52
14.1808	52.28
14.191	52.57
14.2012	52.22
14.2113	51.85
14.2215	52.96
14.2317	52.92
14.2418	53.14
14.252	53.19
14.2622	53.41
14.2723	52.12
14.2825	55.13
14.2927	54.24
14.3028	53.46
14.313	53.86
14.3231	54.73
14.3333	54.34
14.3435	54.71
14.3536	54.29
14.3638	54.21
14.374	54.73
14.3841	54.76
14.3943	54.90
14.4045	55.52
14.4146	56.63
14.4248	55.50
14.435	55.07
14.4451	55.70
14.4553	54.77
14.4654	56.19
14.4756	56.08
14.4858	56.49
14.4959	55.77
14.5061	56.17
14.5163	56.26
14.5264	56.70
14.5366	56.52
14.5468	56.47
14.5569	58.54
14.5671	56.48
14.5773	56.95
14.5874	58.43
14.5976	57.55
14.6078	56.81
14.6179	57.14
14.6281	57.86
14.6382	56.94
14.6484	58.71
14.6586	58.91
14.6687	57.84
14.6789	57.86
14.6891	58.27
14.6992	58.01
14.7094	57.92
14.7196	59.88
14.7297	58.99
14.7399	59.38
14.7501	59.34
14.7602	59.22
14.7704	59.16
14.7805	60.41
14.7907	59.60
14.8009	60.05
14.811	60.22
14.8212	60.71
14.8314	60.94
14.8415	61.55
14.8517	60.23
14.8619	59.23
14.872	60.44
14.8822	60.04
14.8924	60.60
14.9025	62.27
14.9127	62.48
14.9229	61.73
14.933	61.70
14.9432	60.98
14.9533	61.93
14.9635	62.46
14.9737	62.28
14.9838	62.23
14.994	62.77
15.0042	63.08
15.0143	63.19
15.0245	62.40
15.0347	62.68
15.0448	62.81
15.055	63.51
15.0652	64.50
15.0753	63.24
15.0855	63.07
15.0956	63.08
15.1058	64.12
15.116	65.01
15.1261	65.12
15.1363	63.77
15.1465	64.19
15.1566	64.16
15.1668	64.60
15.177	63.29
15.1871	65.01
15.1973	64.15
15.2075	65.32
15.2176	65.53
15.2278	66.96
15.238	65.55
15.2481	65.30
15.2583	66.91
15.2684	67.65
15.2786	66.63
15.2888	68.24
15.2989	67.24
15.3091	67.68
15.3193	66.23
15.3294	67.40
15.3396	66.88
15.3498	67.88
15.3599	67.74
15.3701	67.77
15.3803	67.96
15.3904	66.85
15.4006	68.03
15.4107	68.93
15.4209	69.20
15.4311	68.63
15.4412	69.21
15.4514	69.63
15.4616	69.54
15.4717	68.38
15.4819	69.96
15.4921	68.80
15.5022	69.02
15.5124	70.24
15.5226	70.71
15.5327	70.55
15.5429	71.49
15.553	71.87
15.5632	70.40
15.5734	70.62
15.5835	71.34
15.5937	71.38
15.6039	70.42
15.614	73.32
15.6242	72.53
15.6344	71.72
15.6445	73.52
15.6547	73.85
15.6649	71.85
15.675	73.62
15.6852	72.18
15.6954	71.68
15.7055	73.38
15.7157	73.87
15.7258	74.10
15.736	73.24
15.7462	73.79
15.7563	74.36
15.7665	73.62
15.7767	76.24
15.7868	75.13
15.797	74.72
15.8072	75.46
15.8173	74.68
15.8275	75.23
15.8377	73.99
15.8478	75.82
15.858	76.14
15.8681	76.50
15.8783	75.16
15.8885	75.84
15.8986	76.30
15.9088	77.43
15.919	77.69
15.9291	78.11
15.9393	77.79
15.9495	78.09
15.9596	77.57
15.9698	76.85
15.98	77.63
15.9901	79.45
16.0003	79.13
16.0105	78.86
16.0206	78.74
16.0308	77.89
16.0409	79.99
16.0511	79.93
16.0613	79.25
16.0714	78.59
16.0816	78.50
16.0918	79.66
16.1019	80.38
16.1121	80.79
16.1223	82.62
16.1324	81.65
16.1426	82.18
16.1528	80.50
16.1629	83.02
16.1731	80.80
16.1832	81.74
16.1934	82.50
16.2036	83.48
16.2137	81.82
16.2239	82.70
16.2341	82.71
16.2442	84.02
16.2544	83.64
16.2646	82.82
16.2747	83.79
16.2849	83.60
16.2951	82.87
16.3052	84.24
16.3154	85.33
16.3256	85.17
16.3357	83.80
16.3459	85.54
16.356	85.57
16.3662	87.09
16.3764	85.21
16.3865	85.72
16.3967	86.27
16.4069	87.59
16.417	85.66
16.4272	86.67
16.4374	86.34
16.4475	88.45
16.4577	86.60
16.4679	87.80
16.478	88.62
16.4882	88.78
16.4983	87.61
16.5085	88.35
16.5187	89.27
16.5288	89.59
16.539	89.59
16.5492	88.57
16.5593	90.32
16.5695	91.27
16.5797	90.09
16.5898	91.25
16.6	89.88
16.6102	92.24
16.6203	91.74
16.6305	90.84
16.6407	90.68
16.6508	90.96
16.661	92.56
16.6711	92.16
16.6813	91.41
16.6915	92.87
16.7016	94.20
16.7118	92.52
16.722	95.38
16.7321	94.07
16.7423	93.55
16.7525	94.96
16.7626	94.77
16.7728	95.24
16.783	95.88
16.7931	95.42
16.8033	94.36
16.8134	96.51
16.8236	95.42
16.8338	95.60
16.8439	96.22
16.8541	95.01
16.8643	95.46
16.8744	98.30
16.8846	96.15
16.8948	96.86
16.9049	97.05
16.9151	98.88
16.9253	97.70
16.9354	96.57
16.9456	97.45
16.9558	98.76
16.9659	99.19
16.9761	97.57
16.9862	100.05
16.9964	99.13
17.0066	100.65
17.0167	98.52
17.0269	100.68
17.0371	100.19
17.0472	99.63
17.0574	99.23
17.0676	98.80
17.0777	101.60
17.0879	100.75
17.0981	99.79
17.1082	100.54
17.1184	100.80
17.1285	102.29
17.1387	101.18
17.1489	102.14
17.159	101.12
17.1692	100.54
17.1794	102.32
17.1895	101.24
17.1997	104.02
17.2099	103.42
17.22	102.76
17.2302	103.54
17.2404	103.85
17.2505	104.93
17.2607	104.61
17.2709	104.83
17.281	103.25
17.2912	104.47
17.3013	104.77
17.3115	105.17
17.3217	106.49
17.3318	104.10
17.342	106.76
17.3522	105.34
17.3623	106.86
17.3725	106.43
17.3827	106.02
17.3928	107.53
17.403	107.11
17.4132	109.29
17.4233	108.57
17.4335	108.25
17.4436	107.30
17.4538	109.51
17.464	108.79
17.4741	108.73
17.4843	109.71
17.4945	109.52
17.5046	110.28
17.5148	110.30
17.525	110.88
17.5351	111.03
17.5453	112.85
17.5555	110.61
17.5656	112.82
17.5758	111.27
17.5859	112.04
17.5961	112.79
17.6063	113.64
17.6164	113.09
17.6266	113.83
17.6368	115.61
17.6469	113.73
17.6571	114.86
17.6673	116.83
17.6774	115.90
17.6876	116.68
17.6978	117.54
17.7079	117.84
17.7181	118.61
17.7283	118.62
17.7384	118.98
17.7486	119.38
17.7587	119.44
17.7689	119.71
17.7791	121.85
17.7892	121.45
17.7994	120.94
17.8096	122.74
17.8197	123.85
17.8299	124.34
17.8401	124.10
17.8502	127.20
17.8604	124.47
17.8706	126.10
17.8807	127.58
17.8909	128.75
17.901	127.92
17.9112	128.82
17.9214	130.76
17.9315	131.02
17.9417	131.59
17.9519	133.76
17.962	132.34
17.9722	134.53
17.9824	135.42
17.9925	136.45
18.0027	136.89
18.0129	140.86
18.023	139.41
18.0332	140.86
18.0434	140.80
18.0535	142.52
18.0637	144.56
18.0738	144.73
18.084	146.39
18.0942	148.96
18.1043	147.23
18.1145	150.54
18.1247	152.59
18.1348	155.42
18.145	155.31
18.1552	158.57
18.1653	158.23
18.1755	159.70
18.1857	163.86
18.1958	162.96
18.206	164.70
18.2161	170.86
18.2263	170.88
18.2365	171.18
18.2466	176.81
18.2568	175.74
18.267	179.78
18.2771	181.45
18.2873	181.15
18.2975	183.21
18.3076	190.94
18.3178	191.18
18.328	192.43
18.3381	198.30
18.3483	201.83
18.3585	202.87
18.3686	206.12
18.3788	209.00
18.3889	211.59
18.3991	217.01
18.4093	219.42
18.4194	218.82
18.4296	223.38
18.4398	227.49
18.4499	230.31
18.4601	237.01
18.4703	237.58
18.4804	237.61
18.4906	242.52
18.5008	247.57
18.5109	246.63
18.5211	250.34
18.5312	252.37
18.5414	255.17
18.5516	260.44
18.5617	258.88
18.5719	261.29
18.5821	261.46
18.5922	266.66
18.6024	269.56
18.6126	267.02
18.6227	270.67
18.6329	269.41
18.6431	270.54
18.6532	272.24
18.6634	270.14
18.6736	273.18
18.6837	273.16
18.6939	270.59
18.704	270.32
18.7142	268.27
18.7244	266.11
18.7345	269.03
18.7447	266.40
18.7549	262.12
18.765	263.90
18.7752	258.88
18.7854	256.91
18.7955	253.30
18.8057	253.82
18.8159	248.02
18.826	246.41
18.8362	244.21
18.8463	240.31
18.8565	236.43
18.8667	235.05
18.8768	230.13
18.887	228.43
18.8972	223.19
18.9073	219.29
18.9175	218.51
18.9277	215.82
18.9378	212.87
18.948	209.25
18.9582	206.27
18.9683	202.40
18.9785	202.60
18.9887	199.51
18.9988	194.80
19.009	193.35
19.0191	189.16
19.0293	186.31
19.0395	185.13
19.0496	182.29
19.0598	179.40
19.07	178.77
19.0801	175.32
19.0903	173.12
19.1005	170.41
19.1106	170.73
19.1208	166.16
19.131	165.16
19.1411	163.74
19.1513	163.48
19.1614	160.71
19.1716	159.35
19.1818	158.21
19.1919	155.41
19.2021	153.18
19.2123	150.53
19.2224	153.26
19.2326	149.30
19.2428	147.80
19.2529	146.71
19.2631	148.57
19.2733	146.34
19.2834	143.49
19.2936	143.38
19.3038	142.79
19.3139	142.32
19.3241	142.91
19.3342	139.59
19.3444	139.76
19.3546	138.63
19.3647	137.92
19.3749	136.48
19.3851	135.59
19.3952	134.07
19.4054	135.93
19.4156	134.24
19.4257	133.37
19.4359	132.76
19.4461	133.24
19.4562	132.65
19.4664	132.40
19.4765	131.03
19.4867	130.96
19.4969	130.76
19.507	131.08
19.5172	128.10
19.5274	130.90
19.5375	130.18
19.5477	128.75
19.5579	128.61
19.568	128.54
19.5782	128.28
19.5884	129.95
19.5985	130.18
19.6087	127.76
19.6188	126.88
19.629	127.44
19.6392	126.15
19.6493	126.33
19.6595	126.79
19.6697	125.31
19.6798	125.22
19.69	125.44
19.7002	127.08
19.7103	128.03
19.7205	126.07
19.7307	125.21
19.7408	124.51
19.751	126.68
19.7612	124.57
19.7713	126.32
19.7815	123.66
19.7916	124.50
19.8018	124.08
19.812	124.97
19.8221	124.40
19.8323	124.73
19.8425	125.73
19.8526	125.41
19.8628	127.17
19.873	126.26
19.8831	124.76
19.8933	124.12
19.9035	125.95
19.9136	124.21
19.9238	126.62
19.9339	126.10
19.9441	123.77
19.9543	126.17
19.9644	126.43
19.9746	126.32
19.9848	128.22
19.9949	128.18
20.0051	127.32
20.0153	128.19
20.0254	127.91
20.0356	127.82
20.0458	128.59
20.0559	127.07
20.0661	127.78
20.0763	130.63
20.0864	131.07
20.0966	128.21
20.1067	132.84
20.1169	130.72
20.1271	128.62
20.1372	130.55
20.1474	131.73
20.1576	132.57
20.1677	134.19
20.1779	133.38
20.1881	132.11
20.1982	135.46
20.2084	134.78
20.2186	134.96
20.2287	135.70
20.2389	135.55
20.249	135.02
20.2592	136.06
20.2694	136.86
20.2795	137.84
20.2897	137.60
20.2999	137.46
20.31	137.41
20.3202	139.00
20.3304	139.57
20.3405	140.74
20.3507	139.31
20.3609	140.27
20.371	141.20
20.3812	141.18
20.3914	141.33
20.4015	140.52
20.4117	141.80
20.4218	143.58
20.432	143.38
20.4422	144.05
20.4523	145.37
20.4625	142.37
20.4727	146.07
20.4828	145.78
20.493	146.34
20.5032	148.21
20.5133	147.41
20.5235	145.07
20.5337	146.95
20.5438	146.78
20.554	143.57
20.5641	147.54
20.5743	147.92
20.5845	146.55
20.5946	146.98
20.6048	150.87
20.615	146.70
20.6251	146.68
20.6353	148.52
20.6455	146.17
20.6556	146.42
20.6658	146.05
20.676	145.68
20.6861	146.21
20.6963	145.98
20.7065	146.34
20.7166	146.87
20.7268	146.33
20.7369	144.75
20.7471	143.68
20.7573	145.44
20.7674	142.44
20.7776	141.88
20.7878	141.64
20.7979	140.62
20.8081	140.82
20.8183	140.23
20.8284	140.07
20.8386	139.62
20.8488	138.91
20.8589	133.70
20.8691	137.83
20.8792	137.16
20.8894	133.86
20.8996	135.78
20.9097	133.84
20.9199	133.07
20.9301	134.84
20.9402	132.33
20.9504	129.87
20.9606	130.52
20.9707	129.88
20.9809	128.75
20.9911	128.40
21.0012	129.60
21.0114	127.62
21.0216	127.65
21.0317	124.78
21.0419	124.37
21.052	124.26
21.0622	124.54
21.0724	120.99
21.0825	123.47
21.0927	121.57
21.1029	121.82
21.113	122.38
21.1232	120.53
21.1334	117.17
21.1435	119.40
21.1537	120.16
21.1639	118.30
21.174	117.86
21.1842	117.65
21.1943	116.73
21.2045	116.91
21.2147	118.61
21.2248	115.50
21.235	115.08
21.2452	114.80
21.2553	115.46
21.2655	114.48
21.2757	113.98
21.2858	114.49
21.296	113.18
21.3062	114.20
21.3163	112.52
21.3265	114.90
21.3366	114.45
21.3468	111.50
21.357	113.04
21.3671	113.11
21.3773	110.35
21.3875	112.98
21.3976	111.83
21.4078	111.40
21.418	113.74
21.4281	111.79
21.4383	109.84
21.4485	112.45
21.4586	111.54
21.4688	111.55
21.479	112.26
21.4891	112.24
21.4993	111.51
21.5094	114.08
21.5196	111.12
21.5298	111.31
21.5399	113.29
21.5501	111.27
21.5603	112.31
21.5704	114.98
21.5806	112.74
21.5908	110.88
21.6009	113.22
21.6111	113.29
21.6213	112.36
21.6314	115.44
21.6416	114.37
21.6517	114.35
21.6619	115.77
21.6721	114.91
21.6822	114.88
21.6924	116.55
21.7026	117.76
21.7127	116.46
21.7229	116.83
21.7331	117.66
21.7432	117.39
21.7534	121.67
21.7636	120.68
21.7737	120.95
21.7839	120.96
21.7941	122.93
21.8042	121.13
21.8144	122.22
21.8245	125.00
21.8347	124.88
21.8449	125.45
21.855	127.52
21.8652	125.99
21.8754	126.43
21.8855	129.16
21.8957	126.99
21.9059	129.65
21.916	130.54
21.9262	129.16
21.9364	132.61
21.9465	132.82
21.9567	132.49
21.9668	135.18
21.977	136.73
21.9872	135.00
21.9973	137.46
22.0075	138.45
22.0177	135.48
22.0278	140.03
22.038	140.93
22.0482	139.77
22.0583	141.07
22.0685	142.63
22.0787	144.99
22.0888	144.87
22.099	147.46
22.1092	146.45
22.1193	150.25
22.1295	151.21
22.1396	149.48
22.1498	151.02
22.16	152.37
22.1701	152.71
22.1803	155.91
22.1905	155.88
22.2006	153.73
22.2108	160.22
22.221	162.71
22.2311	159.99
22.2413	159.71
22.2515	160.87
22.2616	162.04
22.2718	163.09
22.2819	165.21
22.2921	165.12
22.3023	165.86
22.3124	167.12
22.3226	166.62
22.3328	170.27
22.3429	169.01
22.3531	167.38
22.3633	170.23
22.3734	170.87
22.3836	172.96
22.3938	170.98
22.4039	171.60
22.4141	171.66
22.4243	172.18
22.4344	174.27
22.4446	171.69
22.4547	173.27
22.4649	173.85
22.4751	171.98
22.4852	172.75
22.4954	173.22
22.5056	171.96
22.5157	173.13
22.5259	174.27
22.5361	171.77
22.5462	171.28
22.5564	170.45
22.5666	169.29
22.5767	171.09
22.5869	170.37
22.597	170.64
22.6072	168.11
22.6174	167.69
22.6275	165.48
22.6377	166.71
22.6479	165.37
22.658	164.68
22.6682	161.73
22.6784	164.55
22.6885	159.10
22.6987	161.62
22.7089	162.27
22.719	158.71
22.7292	158.25
22.7394	158.07
22.7495	154.16
22.7597	156.20
22.7698	156.87
22.78	153.48
22.7902	154.16
22.8003	151.41
22.8105	150.02
22.8207	149.99
22.8308	148.83
22.841	144.01
22.8512	147.84
22.8613	144.48
22.8715	141.49
22.8817	143.24
22.8918	141.13
22.902	139.61
22.9121	139.37
22.9223	137.70
22.9325	135.80
22.9426	135.91
22.9528	135.29
22.963	132.52
22.9731	132.95
22.9833	131.43
22.9935	129.01
23.0036	127.21
23.0138	130.56
23.024	126.43
23.0341	125.96
23.0443	125.15
23.0545	124.13
23.0646	123.25
23.0748	122.07
23.0849	120.02
23.0951	120.25
23.1053	119.52
23.1154	117.82
23.1256	118.22
23.1358	115.05
23.1459	115.10
23.1561	114.09
23.1663	112.52
23.1764	113.18
23.1866	112.40
23.1968	111.74
23.2069	109.11
23.2171	108.86
23.2272	108.82
23.2374	106.71
23.2476	107.25
23.2577	104.98
23.2679	104.58
23.2781	104.14
23.2882	103.54
23.2984	103.22
23.3086	100.23
23.3187	101.72
23.3289	99.11
23.3391	100.32
23.3492	99.13
23.3594	97.75
23.3695	99.04
23.3797	98.80
23.3899	96.75
23.4	96.70
23.4102	95.59
23.4204	94.64
23.4305	95.10
23.4407	94.35
23.4509	91.56
23.461	89.80
23.4712	88.88
23.4814	91.33
23.4915	91.41
23.5017	90.02
23.5119	89.75
23.522	89.26
23.5322	89.12
23.5423	87.27
23.5525	87.23
23.5627	86.73
23.5728	84.29
23.583	85.38
23.5932	85.96
23.6033	84.33
23.6135	83.24
23.6237	83.01
23.6338	82.16
23.644	81.71
23.6542	81.34
23.6643	81.75
23.6745	81.16
23.6846	81.74
23.6948	80.09
23.705	80.63
23.7151	80.01
23.7253	78.06
23.7355	78.10
23.7456	78.35
23.7558	78.24
23.766	77.17
23.7761	77.21
23.7863	77.83
23.7965	75.04
23.8066	75.36
23.8168	75.74
23.827	74.76
23.8371	76.37
23.8473	74.96
23.8574	75.55
23.8676	74.48
23.8778	73.71
23.8879	74.55
23.8981	73.45
23.9083	72.07
23.9184	71.68
23.9286	72.84
23.9388	73.13
23.9489	71.96
23.9591	71.63
23.9693	71.77
23.9794	71.55
23.9896	69.23
23.9997	70.05
24.0099	70.90
24.0201	70.35
24.0302	69.75
24.0404	70.99
24.0506	68.69
24.0607	68.44
24.0709	68.61
24.0811	69.68
24.0912	67.14
24.1014	66.91
24.1116	68.45
24.1217	67.02
24.1319	67.88
24.1421	67.78
24.1522	67.10
24.1624	66.12
24.1725	68.13
24.1827	65.83
24.1929	66.49
24.203	66.10
24.2132	64.52
24.2234	65.38
24.2335	64.76
24.2437	65.83
24.2539	64.87
24.264	64.67
24.2742	65.34
24.2844	64.40
24.2945	64.43
24.3047	63.93
24.3148	65.60
24.325	64.27
24.3352	64.12
24.3453	63.27
24.3555	63.68
24.3657	65.00
24.3758	63.80
24.386	63.59
24.3962	62.51
24.4063	62.52
24.4165	62.70
24.4267	62.95
24.4368	63.08
24.447	62.59
24.4572	61.73
24.4673	61.25
24.4775	62.58
24.4876	62.50
24.4978	60.98
24.508	60.90
24.5181	60.44
24.5283	62.54
24.5385	62.41
24.5486	61.48
24.5588	61.62
24.569	61.43
24.5791	61.54
24.5893	60.05
24.5995	59.95
24.6096	60.40
24.6198	61.13
24.6299	60.96
24.6401	61.66
24.6503	59.41
24.6604	59.12
24.6706	60.26
24.6808	59.67
24.6909	58.89
24.7011	59.34
24.7113	58.09
24.7214	59.22
24.7316	59.51
24.7418	58.71
24.7519	59.30
24.7621	58.33
24.7723	59.27
24.7824	58.99
24.7926	58.97
24.8027	57.67
24.8129	58.79
24.8231	58.98
24.8332	58.81
24.8434	58.05
24.8536	57.19
24.8637	57.93
24.8739	57.46
24.8841	57.28
24.8942	57.30
24.9044	57.99
24.9146	58.29
24.9247	57.01
24.9349	57.03
24.945	57.10
24.9552	57.47
24.9654	57.00
24.9755	56.38
24.9857	57.70
24.9959	56.70
25.006	56.89
25.0162	57.51
25.0264	57.13
25.0365	55.29
25.0467	57.19
25.0569	57.10
25.067	56.68
25.0772	56.40
25.0874	56.01
25.0975	56.07
25.1077	55.63
25.1178	55.71
25.128	56.21
25.1382	56.46
25.1483	55.95
25.1585	55.55
25.1687	56.29
25.1788	55.90
25.189	55.66
25.1992	55.45
25.2093	56.08
25.2195	55.67
25.2297	56.06
25.2398	56.20
25.25	57.23
25.2601	56.17
25.2703	55.85
25.2805	56.63
25.2906	55.25
25.3008	54.78
25.311	55.34
25.3211	55.21
25.3313	54.61
25.3415	55.25
25.3516	55.27
25.3618	55.87
25.372	56.27
25.3821	55.13
25.3923	54.93
25.4024	55.82
25.4126	55.60
25.4228	54.60
25.4329	55.60
25.4431	54.65
25.4533	54.82
25.4634	54.63
25.4736	54.43
25.4838	54.82
25.4939	55.30
25.5041	54.70
25.5143	54.56
25.5244	54.52
25.5346	54.46
25.5448	54.02
25.5549	54.10
25.5651	54.46
25.5752	53.74
25.5854	53.26
25.5956	53.55
25.6057	53.96
25.6159	53.04
25.6261	54.05
25.6362	54.27
25.6464	53.38
25.6566	54.27
25.6667	54.29
25.6769	53.82
25.6871	52.64
25.6972	53.70
25.7074	54.80
25.7175	53.42
25.7277	53.04
25.7379	53.01
25.748	52.93
25.7582	54.38
25.7684	52.54
25.7785	52.83
25.7887	53.75
25.7989	53.24
25.809	52.93
25.8192	54.18
25.8294	53.21
25.8395	53.27
25.8497	52.38
25.8599	52.62
25.87	52.45
25.8802	52.05
25.8903	52.00
25.9005	52.85
25.9107	52.67
25.9208	52.35
25.931	52.03
25.9412	52.88
25.9513	51.79
25.9615	52.60
25.9717	52.79
25.9818	51.04
25.992	52.43
26.0022	51.03
26.0123	51.49
26.0225	51.73
26.0326	51.98
26.0428	52.29
26.053	51.24
26.0631	51.13
26.0733	49.55
26.0835	51.68
26.0936	50.55
26.1038	51.41
26.114	50.55
26.1241	51.68
26.1343	51.17
26.1445	50.87
26.1546	50.90
26.1648	50.68
26.175	49.55
26.1851	49.49
26.1953	50.41
26.2054	50.10
26.2156	50.63
26.2258	50.00
26.2359	49.21
26.2461	50.82
26.2563	51.03
26.2664	49.45
26.2766	50.44
26.2868	49.51
26.2969	50.09
26.3071	49.81
26.3173	49.72
26.3274	50.32
26.3376	49.50
26.3477	49.98
26.3579	48.74
26.3681	50.44
26.3782	50.43
26.3884	50.21
26.3986	49.47
26.4087	49.06
26.4189	49.84
26.4291	50.23
26.4392	49.22
26.4494	49.93
26.4596	48.90
26.4697	49.21
26.4799	49.29
26.4901	49.00
26.5002	48.35
26.5104	49.36
26.5205	48.79
26.5307	48.34
26.5409	48.75
26.551	49.27
26.5612	48.70
26.5714	49.46
26.5815	48.89
26.5917	49.02
26.6019	47.84
26.612	48.67
26.6222	48.29
26.6324	48.28
26.6425	47.97
26.6527	48.94
26.6628	48.08
26.673	47.23
26.6832	47.52
26.6933	48.52
26.7035	47.65
26.7137	48.51
26.7238	47.29
26.734	49.05
26.7442	47.48
26.7543	48.12
26.7645	47.90
26.7747	47.01
26.7848	48.17
26.795	47.76
26.8052	47.54
26.8153	48.34
26.8255	47.89
26.8356	47.15
26.8458	47.98
26.856	47.84
26.8661	48.15
26.8763	47.73
26.8865	48.19
26.8966	47.30
26.9068	46.44
26.917	47.52
26.9271	47.68
26.9373	47.76
26.9475	47.92
26.9576	46.77
26.9678	48.21
26.9779	47.74
26.9881	47.66
26.9983	47.38
27.0084	46.98
27.0186	47.59
27.0288	47.11
27.0389	47.13
27.0491	47.36
27.0593	47.52
27.0694	47.69
27.0796	47.18
27.0898	47.24
27.0999	47.80
27.1101	47.34
27.1202	47.74
27.1304	48.15
27.1406	48.37
27.1507	47.95
27.1609	47.38
27.1711	46.46
27.1812	47.71
27.1914	46.80
27.2016	47.53
27.2117	46.15
27.2219	46.96
27.2321	47.23
27.2422	47.88
27.2524	48.66
27.2626	47.10
27.2727	46.75
27.2829	46.42
27.293	47.44
27.3032	46.38
27.3134	46.26
27.3235	48.49
27.3337	47.35
27.3439	46.66
27.354	46.59
27.3642	46.19
27.3744	47.54
27.3845	47.20
27.3947	48.52
27.4049	47.06
27.415	47.02
27.4252	47.03
27.4353	48.16
27.4455	47.72
27.4557	47.85
27.4658	48.29
27.476	47.98
27.4862	47.98
27.4963	48.98
27.5065	48.55
27.5167	48.35
27.5268	48.74
27.537	47.30
27.5472	48.25
27.5573	47.90
27.5675	47.68
27.5777	49.02
27.5878	48.23
27.598	49.16
27.6081	48.32
27.6183	48.99
27.6285	49.41
27.6386	49.24
27.6488	49.44
27.659	50.94
27.6691	48.74
27.6793	49.98
27.6895	48.26
27.6996	49.95
27.7098	50.18
27.72	49.71
27.7301	49.90
27.7403	50.44
27.7504	50.75
27.7606	51.63
27.7708	50.87
27.7809	50.27
27.7911	51.07
27.8013	50.81
27.8114	52.13
27.8216	51.65
27.8318	52.45
27.8419	53.62
27.8521	52.70
27.8623	52.45
27.8724	53.06
27.8826	53.74
27.8928	54.52
27.9029	53.85
27.9131	54.85
27.9232	54.20
27.9334	53.98
27.9436	55.90
27.9537	55.63
27.9639	56.72
27.9741	55.44
27.9842	56.27
27.9944	57.09
28.0046	57.66
28.0147	57.36
28.0249	57.84
28.0351	58.70
28.0452	57.77
28.0554	59.26
28.0655	58.66
28.0757	58.93
28.0859	59.63
28.096	60.72
28.1062	61.64
28.1164	61.91
28.1265	61.47
28.1367	62.78
28.1469	62.54
28.157	62.52
28.1672	62.56
28.1774	63.90
28.1875	63.86
28.1977	64.22
28.2079	66.11
28.218	64.72
28.2282	66.92
28.2383	66.07
28.2485	67.53
28.2587	68.60
28.2688	68.37
28.279	68.01
28.2892	69.33
28.2993	70.24
28.3095	70.58
28.3197	72.06
28.3298	70.90
28.34	71.39
28.3502	70.57
28.3603	70.65
28.3705	71.99
28.3806	70.96
28.3908	72.81
28.401	71.48
28.4111	73.06
28.4213	72.28
28.4315	70.66
28.4416	72.55
28.4518	73.98
28.462	72.74
28.4721	73.27
28.4823	73.58
28.4925	73.30
28.5026	73.15
28.5128	73.26
28.523	73.11
28.5331	74.27
28.5433	74.72
28.5534	73.41
28.5636	74.22
28.5738	73.93
28.5839	73.43
28.5941	74.41
28.6043	74.73
28.6144	72.03
28.6246	73.48
28.6348	74.65
28.6449	72.60
28.6551	73.23
28.6653	72.91
28.6754	71.02
28.6856	72.82
28.6957	72.09
28.7059	71.47
28.7161	71.38
28.7262	71.47
28.7364	71.03
28.7466	70.69
28.7567	70.40
28.7669	68.63
28.7771	68.84
28.7872	70.45
28.7974	68.05
28.8076	68.76
28.8177	68.21
28.8279	67.55
28.8381	67.51
28.8482	66.06
28.8584	66.76
28.8685	64.44
28.8787	66.53
28.8889	65.25
28.899	64.98
28.9092	64.98
28.9194	62.45
28.9295	62.62
28.9397	63.09
28.9499	63.15
28.96	62.24
28.9702	61.46
28.9804	61.38
28.9905	60.04
29.0007	61.14
29.0108	60.18
29.021	60.02
29.0312	60.03
29.0413	59.61
29.0515	59.31
29.0617	58.27
29.0718	58.01
29.082	57.71
29.0922	57.63
29.1023	56.23
29.1125	56.74
29.1227	56.19
29.1328	55.80
29.143	56.51
29.1531	55.08
29.1633	55.12
29.1735	54.65
29.1836	56.11
29.1938	53.76
29.204	54.07
29.2141	54.65
29.2243	52.68
29.2345	53.03
29.2446	53.07
29.2548	51.23
29.265	52.49
29.2751	52.83
29.2853	50.71
29.2955	51.62
29.3056	51.07
29.3158	51.18
29.3259	50.29
29.3361	51.40
29.3463	49.29
29.3564	50.76
29.3666	49.82
29.3768	49.78
29.3869	49.77
29.3971	49.89
29.4073	49.04
29.4174	49.63
29.4276	48.95
29.4378	49.04
29.4479	48.02
29.4581	47.99
29.4682	48.43
29.4784	47.04
29.4886	47.16
29.4987	47.20
29.5089	47.20
29.5191	47.61
29.5292	46.84
29.5394	46.81
29.5496	46.89
29.5597	46.35
29.5699	45.98
29.5801	46.25
29.5902	45.78
29.6004	46.12
29.6106	46.89
29.6207	45.40
29.6309	45.42
29.641	45.16
29.6512	45.09
29.6614	45.35
29.6715	45.05
29.6817	45.98
29.6919	43.58
29.702	44.28
29.7122	43.81
29.7224	43.66
29.7325	44.34
29.7427	44.53
29.7529	44.82
29.763	43.63
29.7732	44.78
29.7833	43.37
29.7935	43.73
29.8037	43.15
29.8138	44.39
29.824	44.76
29.8342	42.79
29.8443	43.32
29.8545	44.23
29.8647	43.48
29.8748	43.29
29.885	43.96
29.8952	43.79
29.9053	43.20
29.9155	43.33
29.9257	43.10
29.9358	42.95
29.946	42.85
29.9561	42.12
29.9663	41.92
29.9765	43.67
29.9866	42.77
29.9968	43.02
30.007	42.85
30.0171	41.86
30.0273	42.66
30.0375	42.05
30.0476	41.55
30.0578	42.63
30.068	42.26
30.0781	41.85
30.0883	42.18
30.0984	42.13
30.1086	41.85
30.1188	41.57
30.1289	41.29
30.1391	40.75
30.1493	42.21
30.1594	42.15
30.1696	41.11
30.1798	41.73
30.1899	41.84
30.2001	40.68
30.2103	41.24
30.2204	42.18
30.2306	40.36
30.2408	41.08
30.2509	40.05
30.2611	40.23
30.2712	40.57
30.2814	40.15
30.2916	40.41
30.3017	39.45
30.3119	40.46
30.3221	39.37
30.3322	40.10
30.3424	39.51
30.3526	38.96
30.3627	39.46
30.3729	38.79
30.3831	38.64
30.3932	37.83
30.4034	39.90
30.4135	38.21
30.4237	39.24
30.4339	39.02
30.444	38.89
30.4542	39.28
30.4644	38.41
30.4745	38.36
30.4847	38.24
30.4949	38.83
30.505	37.79
30.5152	37.19
30.5254	38.62
30.5355	36.79
30.5457	37.51
30.5559	37.75
30.566	38.09
30.5762	37.65
30.5863	37.38
30.5965	36.16
30.6067	37.04
30.6168	36.74
30.627	35.66
30.6372	37.11
30.6473	37.07
30.6575	36.50
30.6677	36.15
30.6778	36.79
30.688	36.14
30.6982	35.62
30.7083	35.82
30.7185	36.68
30.7286	36.66
30.7388	35.99
30.749	34.65
30.7591	35.84
30.7693	35.90
30.7795	35.84
30.7896	35.09
30.7998	35.80
30.81	34.64
30.8201	35.48
30.8303	34.77
30.8405	35.58
30.8506	36.02
30.8608	35.38
30.871	34.44
30.8811	34.98
30.8913	35.77
30.9014	34.24
30.9116	34.85
30.9218	35.63
30.9319	34.87
30.9421	34.54
30.9523	34.88
30.9624	35.03
30.9726	33.80
30.9828	33.43
30.9929	35.46
31.0031	34.07
31.0133	34.77
31.0234	34.32
31.0336	34.48
31.0437	34.26
31.0539	33.82
31.0641	33.64
31.0742	34.90
31.0844	33.65
31.0946	34.13
31.1047	33.42
31.1149	33.70
31.1251	33.71
31.1352	34.83
31.1454	33.34
31.1556	33.58
31.1657	33.88
31.1759	33.94
31.186	33.55
31.1962	33.11
31.2064	33.10
31.2165	33.43
31.2267	32.96
31.2369	32.11
31.247	33.28
31.2572	33.71
31.2674	32.96
31.2775	33.01
31.2877	32.83
31.2979	32.75
31.308	32.21
31.3182	32.62
31.3284	32.43
31.3385	33.57
31.3487	33.18
31.3588	33.86
31.369	32.71
31.3792	33.29
31.3893	32.80
31.3995	31.93
31.4097	33.10
31.4198	31.88
31.43	33.55
31.4402	33.05
31.4503	33.19
31.4605	33.05
31.4707	33.27
31.4808	32.71
31.491	33.18
31.5011	32.61
31.5113	32.46
31.5215	32.26
31.5316	33.16
31.5418	31.94
31.552	32.14
31.5621	33.55
31.5723	32.80
31.5825	32.10
31.5926	32.04
31.6028	32.62
31.613	32.74
31.6231	32.54
31.6333	32.73
31.6435	32.22
31.6536	31.78
31.6638	32.15
31.6739	32.49
31.6841	32.24
31.6943	31.96
31.7044	32.36
31.7146	32.62
31.7248	31.73
31.7349	31.79
31.7451	32.32
31.7553	32.45
31.7654	32.27
31.7756	31.55
31.7858	32.23
31.7959	32.56
31.8061	32.75
31.8162	32.66
31.8264	32.45
31.8366	32.16
31.8467	32.57
31.8569	31.74
31.8671	33.04
31.8772	32.58
31.8874	31.54
31.8976	33.20
31.9077	31.99
31.9179	31.91
31.9281	32.81
31.9382	32.49
31.9484	32.36
31.9586	32.20
31.9687	32.96
31.9789	32.04
31.989	32.07
31.9992	32.14
32.0094	32.53
32.0195	33.90
32.0297	33.62
32.0399	31.98
32.05	32.89
32.0602	31.93
32.0704	32.18
32.0805	32.18
32.0907	32.46
32.1009	32.70
32.111	32.63
32.1212	33.08
32.1313	33.88
32.1415	33.22
32.1517	32.71
32.1618	32.73
32.172	32.90
32.1822	32.12
32.1923	33.12
32.2025	32.85
32.2127	33.01
32.2228	33.13
32.233	32.12
32.2432	32.80
32.2533	33.37
32.2635	32.23
32.2737	33.89
32.2838	32.88
32.294	33.15
32.3041	32.85
32.3143	32.82
32.3245	34.21
32.3346	33.12
32.3448	33.30
32.355	33.41
32.3651	32.82
32.3753	32.43
32.3855	32.76
32.3956	32.51
32.4058	33.32
32.416	33.58
32.4261	32.52
32.4363	33.23
32.4464	32.86
32.4566	32.32
32.4668	32.65
32.4769	34.48
32.4871	33.93
32.4973	33.49
32.5074	32.91
32.5176	31.98
32.5278	33.16
32.5379	33.46
32.5481	33.23
32.5583	32.70
32.5684	32.99
32.5786	32.48
32.5888	32.85
32.5989	33.15
32.6091	33.19
32.6192	33.87
32.6294	32.93
32.6396	33.00
32.6497	33.53
32.6599	33.09
32.6701	33.37
32.6802	33.37
32.6904	32.95
32.7006	32.44
32.7107	32.37
32.7209	31.98
32.7311	32.16
32.7412	33.09
32.7514	33.52
32.7615	32.31
32.7717	32.44
32.7819	32.48
32.792	32.60
32.8022	33.29
32.8124	32.98
32.8225	32.82
32.8327	33.57
32.8429	32.40
32.853	32.48
32.8632	32.87
32.8734	33.04
32.8835	32.60
32.8937	33.00
32.9039	32.63
32.914	32.71
32.9242	32.26
32.9343	32.84
32.9445	32.73
32.9547	31.93
32.9648	32.54
32.975	32.41
32.9852	31.92
32.9953	32.50
33.0055	32.71
33.0157	33.02
33.0258	33.48
33.036	32.49
33.0462	32.77
33.0563	32.13
33.0665	32.20
33.0766	32.26
33.0868	32.04
33.097	32.31
33.1071	32.73
33.1173	32.88
33.1275	32.66
33.1376	32.79
33.1478	33.72
33.158	32.14
33.1681	32.75
33.1783	33.07
33.1885	32.64
33.1986	33.38
33.2088	33.05
33.2189	33.41
33.2291	33.09
33.2393	32.63
33.2494	32.43
33.2596	34.05
33.2698	32.10
33.2799	32.50
33.2901	33.57
33.3003	32.20
33.3104	33.01
33.3206	32.01
33.3308	32.43
33.3409	32.91
33.3511	33.35
33.3613	32.34
33.3714	33.48
33.3816	32.62
33.3917	32.85
33.4019	33.20
33.4121	33.63
33.4222	33.32
33.4324	32.19
33.4426	33.66
33.4527	33.29
33.4629	33.35
33.4731	33.04
33.4832	33.05
33.4934	32.20
33.5036	33.09
33.5137	33.17
33.5239	32.76
33.534	31.98
33.5442	32.26
33.5544	32.01
33.5645	32.50
33.5747	31.87
33.5849	31.52
33.595	31.95
33.6052	32.36
33.6154	31.52
33.6255	31.68
33.6357	31.69
33.6459	31.62
33.656	31.62
33.6662	30.87
33.6764	32.16
33.6865	30.85
33.6967	30.38
33.7068	31.92
33.717	31.27
33.7272	31.28
33.7373	30.85
33.7475	30.68
33.7577	30.99
33.7678	29.57
33.778	30.16
33.7882	30.09
33.7983	30.66
33.8085	30.48
33.8187	29.81
33.8288	29.46
33.839	29.55
33.8491	30.48
33.8593	29.50
33.8695	30.04
33.8796	28.48
33.8898	28.60
33.9	29.18
33.9101	28.55
33.9203	29.01
33.9305	29.05
33.9406	29.76
33.9508	28.73
33.961	29.15
33.9711	28.85
33.9813	28.39
33.9915	28.68
34.0016	29.00
34.0118	28.21
34.0219	27.96
34.0321	27.77
34.0423	28.12
34.0524	28.79
34.0626	27.87
34.0728	27.29
34.0829	27.53
34.0931	27.53
34.1033	27.07
34.1134	27.52
34.1236	27.63
34.1338	27.75
34.1439	26.59
34.1541	27.65
34.1642	26.66
34.1744	27.85
34.1846	27.06
34.1947	27.80
34.2049	27.32
34.2151	27.45
34.2252	27.07
34.2354	27.59
34.2456	26.89
34.2557	27.00
34.2659	26.65
34.2761	26.81
34.2862	26.55
34.2964	26.37
34.3066	26.57
34.3167	25.88
34.3269	26.87
34.337	26.38
34.3472	26.74
34.3574	26.65
34.3675	26.16
34.3777	26.88
34.3879	26.83
34.398	26.04
34.4082	25.73
34.4184	26.77
34.4285	25.57
34.4387	27.04
34.4489	26.19
34.459	25.91
34.4692	27.08
34.4793	26.79
34.4895	25.82
34.4997	26.27
34.5098	26.87
34.52	25.82
34.5302	25.70
34.5403	25.57
34.5505	25.62
34.5607	26.50
34.5708	26.40
34.581	26.50
34.5912	26.40
34.6013	26.12
34.6115	26.30
34.6217	25.92
34.6318	26.26
34.642	25.51
34.6521	25.79
34.6623	25.95
34.6725	25.77
34.6826	26.53
34.6928	25.50
34.703	25.93
34.7131	25.47
34.7233	24.88
34.7335	26.06
34.7436	25.07
34.7538	25.65
34.764	24.94
34.7741	25.24
34.7843	24.88
34.7944	26.01
34.8046	25.43
34.8148	25.44
34.8249	25.97
34.8351	25.52
34.8453	24.77
34.8554	25.30
34.8656	25.29
34.8758	25.76
34.8859	25.76
34.8961	25.39
34.9063	25.29
34.9164	25.15
34.9266	24.75
34.9367	25.22
34.9469	25.18
34.9571	25.45
34.9672	24.84
34.9774	25.32
34.9876	25.23
34.9977	25.38
35.0079	25.03
35.0181	26.12
35.0282	25.16
35.0384	25.99
35.0486	25.07
35.0587	25.35
35.0689	25.13
35.0791	25.70
35.0892	25.42
35.0994	24.80
35.1095	25.17
35.1197	25.41
35.1299	25.23
35.14	24.43
35.1502	24.74
35.1604	24.69
35.1705	25.57
35.1807	24.82
35.1909	24.19
35.201	25.14
35.2112	25.41
35.2214	24.49
35.2315	25.35
35.2417	23.98
35.2518	25.15
35.262	25.07
35.2722	24.84
35.2823	25.67
35.2925	25.01
35.3027	24.56
35.3128	24.86
35.323	24.48
35.3332	24.44
35.3433	24.38
35.3535	24.33
35.3637	24.91
35.3738	24.46
35.384	25.07
35.3942	25.86
35.4043	24.35
35.4145	24.96
35.4246	24.90
35.4348	24.58
35.445	24.53
35.4551	24.96
35.4653	24.21
35.4755	24.49
35.4856	24.45
35.4958	24.88
35.506	24.75
35.5161	24.16
35.5263	24.96
35.5365	25.20
35.5466	23.88
35.5568	24.59
35.5669	23.70
35.5771	23.32
35.5873	25.26
35.5974	24.28
35.6076	24.64
35.6178	24.27
35.6279	24.05
35.6381	24.43
35.6483	24.45
35.6584	24.40
35.6686	24.04
35.6788	24.64
35.6889	24.35
35.6991	23.57
35.7093	23.90
35.7194	24.30
35.7296	24.14
35.7397	24.11
35.7499	24.64
35.7601	24.71
35.7702	24.63
35.7804	24.49
35.7906	24.63
35.8007	23.76
35.8109	24.19
35.8211	24.65
35.8312	24.23
35.8414	24.21
35.8516	24.27
35.8617	24.04
35.8719	23.93
35.882	24.48
35.8922	24.22
35.9024	23.79
35.9125	23.98
35.9227	23.76
35.9329	23.93
35.943	24.46
35.9532	24.27
35.9634	24.48
35.9735	24.45
35.9837	24.17
35.9939	24.23
36.004	23.92
36.0142	23.70
36.0244	24.04
36.0345	23.95
36.0447	24.30
36.0548	23.99
36.065	23.78
36.0752	23.79
36.0853	24.74
36.0955	24.08
36.1057	24.24
36.1158	23.31
36.126	24.80
36.1362	23.82
36.1463	23.63
36.1565	23.90
36.1667	24.00
36.1768	24.14
36.187	24.39
36.1971	23.93
36.2073	24.48
36.2175	23.44
36.2276	24.03
36.2378	24.60
36.248	23.91
36.2581	24.43
36.2683	24.02
36.2785	24.34
36.2886	24.07
36.2988	23.96
36.309	24.83
36.3191	23.85
36.3293	24.32
36.3395	24.26
36.3496	23.43
36.3598	24.09
36.3699	24.22
36.3801	23.88
36.3903	24.30
36.4004	24.20
36.4106	24.50
36.4208	24.18
36.4309	23.76
36.4411	24.18
36.4513	24.12
36.4614	23.86
36.4716	23.77
36.4818	23.84
36.4919	23.98
36.5021	24.29
36.5122	24.55
36.5224	24.50
36.5326	24.31
36.5427	24.69
36.5529	24.59
36.5631	23.47
36.5732	24.57
36.5834	24.51
36.5936	24.11
36.6037	24.42
36.6139	24.23
36.6241	24.19
36.6342	24.87
36.6444	24.12
36.6546	23.41
36.6647	24.04
36.6749	25.07
36.685	24.02
36.6952	24.56
36.7054	23.83
36.7155	23.95
36.7257	23.90
36.7359	24.13
36.746	25.01
36.7562	24.77
36.7664	24.09
36.7765	24.41
36.7867	24.97
36.7969	24.60
36.807	24.66
36.8172	24.38
36.8273	24.03
36.8375	24.37
36.8477	24.27
36.8578	24.87
36.868	24.05
36.8782	25.37
36.8883	24.92
36.8985	25.15
36.9087	25.30
36.9188	24.89
36.929	24.62
36.9392	24.01
36.9493	24.66
36.9595	25.20
36.9696	25.14
36.9798	24.95
36.99	25.34
37.0001	24.55
37.0103	25.27
37.0205	24.80
37.0306	25.22
37.0408	25.29
37.051	25.19
37.0611	25.28
37.0713	25.18
37.0815	24.99
37.0916	25.32
37.1018	24.77
37.112	25.08
37.1221	25.34
37.1323	24.78
37.1424	25.35
37.1526	25.24
37.1628	25.38
37.1729	25.33
37.1831	25.73
37.1933	24.98
37.2034	25.72
37.2136	25.84
37.2238	25.83
37.2339	26.09
37.2441	25.64
37.2543	25.63
37.2644	25.31
37.2746	25.91
37.2847	25.34
37.2949	25.43
37.3051	25.29
37.3152	26.99
37.3254	26.55
37.3356	25.85
37.3457	25.92
37.3559	26.43
37.3661	25.76
37.3762	26.35
37.3864	26.38
37.3966	25.32
37.4067	26.09
37.4169	25.66
37.4271	26.07
37.4372	27.00
37.4474	26.01
37.4575	26.18
37.4677	26.34
37.4779	26.38
37.488	26.02
37.4982	26.62
37.5084	25.97
37.5185	26.30
37.5287	26.59
37.5389	26.13
37.549	25.98
37.5592	25.96
37.5694	26.89
37.5795	26.80
37.5897	26.55
37.5998	26.71
37.61	27.68
37.6202	26.96
37.6303	27.08
37.6405	26.15
37.6507	26.51
37.6608	26.66
37.671	26.72
37.6812	26.66
37.6913	26.93
37.7015	27.32
37.7117	26.79
37.7218	27.35
37.732	27.98
37.7422	26.87
37.7523	27.87
37.7625	28.10
37.7726	27.27
37.7828	26.80
37.793	27.37
37.8031	27.54
37.8133	27.21
37.8235	27.20
37.8336	28.13
37.8438	27.74
37.854	28.86
37.8641	27.22
37.8743	27.60
37.8845	28.37
37.8946	27.67
37.9048	27.19
37.9149	28.43
37.9251	27.94
37.9353	28.88
37.9454	27.94
37.9556	28.34
37.9658	28.55
37.9759	28.44
37.9861	28.68
37.9963	28.82
38.0064	28.89
38.0166	28.02
38.0268	28.85
38.0369	28.90
38.0471	29.26
38.0573	28.48
38.0674	29.09
38.0776	28.99
38.0877	29.23
38.0979	29.41
38.1081	28.84
38.1182	28.77
38.1284	29.16
38.1386	28.75
38.1487	29.54
38.1589	29.95
38.1691	29.84
38.1792	30.48
38.1894	29.88
38.1996	30.26
38.2097	29.94
38.2199	30.02
38.23	29.82
38.2402	29.03
38.2504	29.69
38.2605	29.93
38.2707	30.37
38.2809	30.88
38.291	29.67
38.3012	30.50
38.3114	30.66
38.3215	30.54
38.3317	30.32
38.3419	29.98
38.352	29.87
38.3622	30.40
38.3724	30.09
38.3825	30.73
38.3927	30.88
38.4028	30.29
38.413	30.76
38.4232	29.70
38.4333	30.01
38.4435	30.09
38.4537	31.10
38.4638	31.35
38.474	30.87
38.4842	30.93
38.4943	30.74
38.5045	31.05
38.5147	31.32
38.5248	31.59
38.535	30.88
38.5451	31.25
38.5553	31.37
38.5655	31.36
38.5756	31.16
38.5858	31.28
38.596	30.62
38.6061	31.03
38.6163	31.31
38.6265	30.13
38.6366	31.38
38.6468	31.27
38.657	31.03
38.6671	31.26
38.6773	31.51
38.6875	30.88
38.6976	31.29
38.7078	31.03
38.7179	31.07
38.7281	30.93
38.7383	32.12
38.7484	30.80
38.7586	31.59
38.7688	30.46
38.7789	30.35
38.7891	31.25
38.7993	31.04
38.8094	30.41
38.8196	30.79
38.8298	30.54
38.8399	30.05
38.8501	31.57
38.8602	30.84
38.8704	30.55
38.8806	31.27
38.8907	31.14
38.9009	30.78
38.9111	29.65
38.9212	30.23
38.9314	29.55
38.9416	30.51
38.9517	29.72
38.9619	29.95
38.9721	30.41
38.9822	30.17
38.9924	29.79
39.0025	29.67
39.0127	30.34
39.0229	30.18
39.033	29.66
39.0432	30.42
39.0534	30.22
39.0635	29.93
39.0737	29.52
39.0839	28.84
39.094	29.58
39.1042	29.03
39.1144	30.04
39.1245	29.97
39.1347	29.18
39.1449	28.84
39.155	28.90
39.1652	30.01
39.1753	28.76
39.1855	29.87
39.1957	29.05
39.2058	28.52
39.216	29.05
39.2262	28.68
39.2363	28.90
39.2465	28.96
39.2567	28.40
39.2668	28.73
39.277	28.87
39.2872	27.90
39.2973	28.52
39.3075	28.57
39.3176	27.08
39.3278	28.94
39.338	28.45
39.3481	28.12
39.3583	27.41
39.3685	27.37
39.3786	27.85
39.3888	28.32
39.399	27.85
39.4091	28.01
39.4193	28.22
39.4295	27.71
39.4396	27.30
39.4498	27.06
39.46	27.25
39.4701	26.77
39.4803	27.19
39.4904	27.48
39.5006	27.59
39.5108	26.64
39.5209	27.42
39.5311	26.81
39.5413	27.35
39.5514	27.07
39.5616	27.02
39.5718	27.63
39.5819	26.75
39.5921	26.17
39.6023	27.30
39.6124	26.97
39.6226	26.55
39.6327	26.74
39.6429	26.43
39.6531	27.20
39.6632	26.68
39.6734	26.93
39.6836	26.46
39.6937	25.99
39.7039	26.52
39.7141	26.31
39.7242	26.16
39.7344	25.84
39.7446	26.37
39.7547	26.38
39.7649	25.48
39.7751	26.29
39.7852	26.50
39.7954	25.58
39.8055	25.46
39.8157	25.83
39.8259	26.26
39.836	25.71
39.8462	25.49
39.8564	25.52
39.8665	25.51
39.8767	25.54
39.8869	26.42
39.897	25.47
39.9072	25.09
39.9174	25.73
39.9275	25.12
39.9377	26.07
39.9478	26.12
39.958	25.10
39.9682	26.20
39.9783	26.10
39.9885	25.59
39.9987	25.81
