5.0023	53.46
5.0125	52.23
5.0226	53.13
5.0328	51.87
5.043	50.19
5.0531	50.12
5.0633	50.22
5.0735	48.77
5.0836	47.82
5.0938	47.94
5.1039	46.25
5.1141	45.96
5.1243	45.51
5.1344	44.58
5.1446	44.44
5.1548	44.01
5.1649	43.07
5.1751	42.86
5.1853	42.45
5.1954	40.32
5.2056	41.74
5.2158	41.27
5.2259	39.79
5.2361	38.62
5.2462	39.29
5.2564	38.95
5.2666	38.61
5.2767	37.51
5.2869	37.62
5.2971	37.12
5.3072	36.66
5.3174	36.97
5.3276	36.04
5.3377	35.42
5.3479	34.86
5.3581	35.10
5.3682	34.24
5.3784	33.66
5.3886	32.73
5.3987	32.66
5.4089	33.18
5.419	32.66
5.4292	31.40
5.4394	32.18
5.4495	32.30
5.4597	30.88
5.4699	31.42
5.48	31.55
5.4902	31.37
5.5004	30.21
5.5105	29.62
5.5207	29.34
5.5309	29.21
5.541	30.00
5.5512	29.67
5.5613	29.09
5.5715	28.33
5.5817	28.53
5.5918	27.65
5.602	27.81
5.6122	27.24
5.6223	27.99
5.6325	28.10
5.6427	26.46
5.6528	26.96
5.663	27.49
5.6732	26.65
5.6833	26.85
5.6935	26.90
5.7036	25.81
5.7138	26.44
5.724	25.80
5.7341	25.48
5.7443	25.60
5.7545	25.79
5.7646	25.49
5.7748	24.79
5.785	25.33
5.7951	24.66
5.8053	25.43
5.8155	25.47
5.8256	24.46
5.8358	25.43
5.846	24.74
5.8561	24.89
5.8663	24.88
5.8764	24.31
5.8866	25.04
5.8968	25.01
5.9069	24.68
5.9171	24.24
5.9273	24.91
5.9374	25.19
5.9476	24.43
5.9578	24.05
5.9679	24.69
5.9781	23.93
5.9883	24.14
5.9984	24.78
6.0086	23.25
6.0187	23.49
6.0289	24.61
6.0391	24.29
6.0492	23.86
6.0594	23.98
6.0696	23.29
6.0797	23.01
6.0899	24.02
6.1001	24.48
6.1102	24.13
6.1204	23.63
6.1306	23.51
6.1407	23.77
6.1509	23.48
6.1611	23.68
6.1712	23.79
6.1814	23.63
6.1915	23.48
6.2017	23.27
6.2119	23.77
6.222	23.34
6.2322	24.24
6.2424	23.59
6.2525	23.08
6.2627	23.92
6.2729	23.64
6.283	23.68
6.2932	23.76
6.3034	23.71
6.3135	22.95
6.3237	23.65
6.3338	23.32
6.344	24.17
6.3542	23.54
6.3643	23.23
6.3745	23.49
6.3847	23.91
6.3948	23.20
6.405	23.45
6.4152	22.84
6.4253	23.12
6.4355	23.94
6.4457	23.43
6.4558	23.63
6.466	23.24
6.4762	23.12
6.4863	23.75
6.4965	23.61
6.5066	23.00
6.5168	23.07
6.527	22.85
6.5371	23.45
6.5473	22.73
6.5575	23.57
6.5676	23.54
6.5778	23.45
6.588	22.46
6.5981	22.93
6.6083	23.59
6.6185	23.39
6.6286	23.71
6.6388	24.54
6.6489	23.58
6.6591	23.30
6.6693	23.07
6.6794	24.30
6.6896	22.90
6.6998	23.11
6.7099	24.27
6.7201	24.11
6.7303	23.55
6.7404	23.59
6.7506	23.47
6.7608	23.02
6.7709	24.05
6.7811	24.45
6.7913	24.01
6.8014	24.13
6.8116	23.67
6.8217	23.05
6.8319	23.90
6.8421	24.06
6.8522	23.90
6.8624	23.30
6.8726	23.11
6.8827	24.02
6.8929	22.99
6.9031	24.07
6.9132	23.30
6.9234	24.42
6.9336	23.65
6.9437	24.04
6.9539	23.95
6.964	23.91
6.9742	23.98
6.9844	23.54
6.9945	23.52
7.0047	24.31
7.0149	24.12
7.025	23.63
7.0352	24.01
7.0454	24.19
7.0555	24.30
7.0657	24.88
7.0759	23.52
7.086	24.88
7.0962	24.56
7.1064	24.23
7.1165	23.33
7.1267	24.89
7.1368	24.06
7.147	23.47
7.1572	25.02
7.1673	23.98
7.1775	23.80
7.1877	24.50
7.1978	24.60
7.208	24.45
7.2182	23.87
7.2283	23.36
7.2385	24.42
7.2487	23.30
7.2588	23.78
7.269	24.25
7.2791	24.23
7.2893	24.41
7.2995	24.95
7.3096	24.43
7.3198	24.89
7.33	24.54
7.3401	24.64
7.3503	24.26
7.3605	24.22
7.3706	24.98
7.3808	25.05
7.391	24.66
7.4011	24.09
7.4113	24.58
7.4215	23.82
7.4316	24.89
7.4418	24.64
7.4519	24.88
7.4621	25.17
7.4723	25.42
7.4824	24.60
7.4926	24.91
7.5028	25.59
7.5129	24.87
7.5231	25.09
7.5333	24.38
7.5434	24.65
7.5536	24.94
7.5638	24.55
7.5739	24.52
7.5841	24.45
7.5942	25.21
7.6044	24.86
7.6146	25.70
7.6247	25.24
7.6349	24.97
7.6451	25.68
7.6552	25.96
7.6654	25.46
7.6756	24.68
7.6857	24.87
7.6959	25.16
7.7061	25.55
7.7162	25.96
7.7264	25.60
7.7365	25.53
7.7467	25.63
7.7569	25.45
7.767	25.26
7.7772	25.97
7.7874	24.65
7.7975	25.40
7.8077	25.51
7.8179	25.68
7.828	25.46
7.8382	25.78
7.8484	25.26
7.8585	25.51
7.8687	24.70
7.8789	25.22
7.889	26.11
7.8992	26.27
7.9093	25.37
7.9195	26.18
7.9297	26.12
7.9398	26.01
7.95	26.21
7.9602	26.27
7.9703	26.59
7.9805	25.77
7.9907	26.28
8.0008	25.68
8.011	25.95
8.0212	25.98
8.0313	24.71
8.0415	26.29
8.0516	26.90
8.0618	25.71
8.072	25.50
8.0821	26.46
8.0923	26.04
8.1025	26.06
8.1126	26.81
8.1228	25.69
8.133	26.73
8.1431	26.95
8.1533	26.37
8.1635	26.11
8.1736	26.90
8.1838	27.52
8.194	26.54
8.2041	26.18
8.2143	27.04
8.2244	26.80
8.2346	26.38
8.2448	26.26
8.2549	26.48
8.2651	26.82
8.2753	26.52
8.2854	25.99
8.2956	27.39
8.3058	26.45
8.3159	26.35
8.3261	27.19
8.3363	26.73
8.3464	26.86
8.3566	27.13
8.3667	26.93
8.3769	27.46
8.3871	26.88
8.3972	27.39
8.4074	26.98
8.4176	27.69
8.4277	27.07
8.4379	27.24
8.4481	27.73
8.4582	27.66
8.4684	27.08
8.4786	26.91
8.4887	27.84
8.4989	26.73
8.5091	27.18
8.5192	27.71
8.5294	28.57
8.5395	27.00
8.5497	27.02
8.5599	27.63
8.57	27.74
8.5802	27.68
8.5904	27.41
8.6005	27.29
8.6107	27.98
8.6209	28.55
8.631	27.77
8.6412	27.54
8.6514	27.10
8.6615	28.14
8.6717	27.46
8.6818	27.77
8.692	28.20
8.7022	27.51
8.7123	29.00
8.7225	27.95
8.7327	27.83
8.7428	27.51
8.753	28.24
8.7632	26.57
8.7733	28.47
8.7835	27.76
8.7937	27.70
8.8038	28.83
8.814	27.86
8.8242	27.71
8.8343	27.91
8.8445	29.06
8.8546	27.37
8.8648	28.30
8.875	29.52
8.8851	27.99
8.8953	28.57
8.9055	29.10
8.9156	28.49
8.9258	28.40
8.936	29.23
8.9461	28.48
8.9563	28.90
8.9665	28.18
8.9766	28.85
8.9868	28.66
8.9969	28.57
9.0071	28.90
9.0173	28.76
9.0274	29.46
9.0376	28.98
9.0478	29.13
9.0579	28.90
9.0681	28.44
9.0783	29.34
9.0884	28.78
9.0986	28.62
9.1088	28.82
9.1189	29.13
9.1291	28.87
9.1393	29.09
9.1494	29.95
9.1596	29.88
9.1697	28.58
9.1799	29.09
9.1901	29.12
9.2002	30.21
9.2104	29.50
9.2206	28.59
9.2307	29.23
9.2409	29.63
9.2511	29.82
9.2612	30.05
9.2714	28.47
9.2816	27.70
9.2917	29.61
9.3019	30.32
9.312	29.49
9.3222	29.15
9.3324	30.22
9.3425	29.64
9.3527	29.60
9.3629	30.40
9.373	29.26
9.3832	29.99
9.3934	30.20
9.4035	29.13
9.4137	30.21
9.4239	30.20
9.434	30.59
9.4442	29.77
9.4544	30.28
9.4645	30.16
9.4747	30.15
9.4848	29.86
9.495	29.80
9.5052	30.73
9.5153	29.65
9.5255	30.02
9.5357	30.42
9.5458	30.09
9.556	29.77
9.5662	30.13
9.5763	31.51
9.5865	30.35
9.5967	30.26
9.6068	30.27
9.617	30.17
9.6271	29.88
9.6373	29.93
9.6475	29.95
9.6576	31.03
9.6678	30.74
9.678	30.94
9.6881	30.11
9.6983	31.06
9.7085	30.55
9.7186	30.57
9.7288	30.74
9.739	30.19
9.7491	30.74
9.7593	31.48
9.7694	30.29
9.7796	30.95
9.7898	30.89
9.7999	30.16
9.8101	30.26
9.8203	30.74
9.8304	31.20
9.8406	31.32
9.8508	31.24
9.8609	30.42
9.8711	30.96
9.8813	30.95
9.8914	31.20
9.9016	31.70
9.9118	31.09
9.9219	30.95
9.9321	31.43
9.9422	31.17
9.9524	31.51
9.9626	30.85
9.9727	31.45
9.9829	31.78
9.9931	31.38
10.0032	31.68
10.0134	32.49
10.0236	30.42
10.0337	30.98
10.0439	31.41
10.0541	31.66
10.0642	31.49
10.0744	31.47
10.0845	31.96
10.0947	31.82
10.1049	31.30
10.115	31.99
10.1252	31.34
10.1354	30.99
10.1455	31.63
10.1557	31.09
10.1659	31.82
10.176	32.23
10.1862	32.21
10.1964	32.49
10.2065	32.24
10.2167	32.51
10.2269	32.43
10.237	31.68
10.2472	31.71
10.2573	31.88
10.2675	32.24
10.2777	32.38
10.2878	32.57
10.298	32.10
10.3082	32.70
10.3183	32.93
10.3285	32.41
10.3387	31.82
10.3488	32.67
10.359	32.57
10.3692	31.43
10.3793	32.44
10.3895	31.79
10.3996	31.74
10.4098	33.21
10.42	32.54
10.4301	32.32
10.4403	32.38
10.4505	32.27
10.4606	33.01
10.4708	32.60
10.481	33.37
10.4911	32.42
10.5013	32.39
10.5115	33.15
10.5216	32.80
10.5318	32.38
10.542	33.86
10.5521	33.37
10.5623	32.91
10.5724	32.73
10.5826	33.57
10.5928	32.88
10.6029	32.90
10.6131	33.81
10.6233	33.65
10.6334	33.40
10.6436	33.44
10.6538	33.28
10.6639	33.01
10.6741	32.63
10.6843	33.21
10.6944	32.66
10.7046	34.21
10.7147	33.55
10.7249	34.23
10.7351	33.85
10.7452	33.68
10.7554	34.35
10.7656	33.15
10.7757	33.78
10.7859	33.37
10.7961	32.74
10.8062	33.87
10.8164	33.57
10.8266	33.70
10.8367	34.12
10.8469	33.70
10.8571	33.92
10.8672	32.58
10.8774	34.39
10.8875	32.74
10.8977	33.29
10.9079	33.41
10.918	33.77
10.9282	33.42
10.9384	34.66
10.9485	34.48
10.9587	33.53
10.9689	34.57
10.979	34.26
10.9892	34.11
10.9994	34.05
11.0095	34.63
11.0197	33.95
11.0298	34.21
11.04	33.93
11.0502	34.32
11.0603	33.82
11.0705	34.54
11.0807	34.55
11.0908	34.52
11.101	34.80
11.1112	34.89
11.1213	34.50
11.1315	35.77
11.1417	35.63
11.1518	34.56
11.162	34.41
11.1722	34.29
11.1823	34.78
11.1925	35.12
11.2026	35.30
11.2128	35.69
11.223	35.52
11.2331	34.17
11.2433	35.23
11.2535	34.85
11.2636	35.01
11.2738	34.52
11.284	35.37
11.2941	35.07
11.3043	34.65
11.3145	36.09
11.3246	34.89
11.3348	35.77
11.3449	36.12
11.3551	36.00
11.3653	36.66
11.3754	34.94
11.3856	35.82
11.3958	35.46
11.4059	35.39
11.4161	35.02
11.4263	36.09
11.4364	36.01
11.4466	35.85
11.4568	35.50
11.4669	36.67
11.4771	35.15
11.4873	35.12
11.4974	36.90
11.5076	35.62
11.5177	35.94
11.5279	35.95
11.5381	34.56
11.5482	36.48
11.5584	35.10
11.5686	35.42
11.5787	37.22
11.5889	36.09
11.5991	36.09
11.6092	36.62
11.6194	35.79
11.6296	37.11
11.6397	37.02
11.6499	36.87
11.66	36.44
11.6702	37.09
11.6804	36.15
11.6905	36.83
11.7007	37.01
11.7109	37.37
11.721	36.56
11.7312	36.15
11.7414	36.69
11.7515	37.27
11.7617	36.73
11.7719	36.75
11.782	37.38
11.7922	37.49
11.8023	37.67
11.8125	36.98
11.8227	37.18
11.8328	37.87
11.843	37.57
11.8532	36.82
11.8633	38.16
11.8735	38.10
11.8837	37.37
11.8938	36.43
11.904	37.09
11.9142	37.13
11.9243	38.20
11.9345	37.02
11.9447	38.39
11.9548	38.61
11.965	38.00
11.9751	38.30
11.9853	37.30
11.9955	37.79
12.0056	37.84
12.0158	38.07
12.026	38.12
12.0361	38.43
12.0463	38.32
12.0565	38.22
12.0666	38.84
12.0768	37.73
12.087	39.49
12.0971	38.87
12.1073	38.07
12.1174	38.37
12.1276	38.73
12.1378	39.03
12.1479	38.04
12.1581	38.87
12.1683	39.32
12.1784	39.24
12.1886	39.49
12.1988	40.30
12.2089	39.19
12.2191	37.87
12.2293	40.10
12.2394	39.58
12.2496	38.66
12.2598	39.76
12.2699	39.50
12.2801	40.61
12.2902	39.21
12.3004	39.51
12.3106	39.12
12.3207	39.54
12.3309	40.35
12.3411	39.74
12.3512	39.91
12.3614	39.95
12.3716	38.96
12.3817	40.08
12.3919	39.34
12.4021	39.80
12.4122	40.22
12.4224	39.66
12.4325	40.65
12.4427	40.34
12.4529	39.78
12.463	40.59
12.4732	40.89
12.4834	40.74
12.4935	40.74
12.5037	40.76
12.5139	41.17
12.524	40.45
12.5342	41.13
12.5444	41.84
12.5545	41.02
12.5647	41.15
12.5749	40.49
12.585	41.49
12.5952	41.55
12.6053	41.07
12.6155	41.23
12.6257	41.54
12.6358	41.51
12.646	41.46
12.6562	41.38
12.6663	41.87
12.6765	42.68
12.6867	42.55
12.6968	42.56
12.707	42.23
12.7172	42.11
12.7273	41.99
12.7375	42.62
12.7476	42.40
12.7578	41.65
12.768	42.84
12.7781	41.73
12.7883	42.77
12.7985	42.02
12.8086	42.37
12.8188	42.45
12.829	42.78
12.8391	42.78
12.8493	43.91
12.8595	43.49
12.8696	41.89
12.8798	42.91
12.89	42.15
12.9001	43.73
12.9103	43.03
12.9204	43.54
12.9306	43.00
12.9408	42.40
12.9509	43.53
12.9611	43.18
12.9713	43.61
12.9814	44.45
12.9916	43.97
13.0018	44.42
13.0119	44.01
13.0221	42.57
13.0323	43.30
13.0424	43.98
13.0526	44.22
13.0627	44.01
13.0729	45.02
13.0831	44.23
13.0932	44.93
13.1034	45.57
13.1136	44.27
13.1237	44.46
13.1339	45.36
13.1441	44.93
13.1542	44.59
13.1644	44.55
13.1746	45.74
13.1847	45.64
13.1949	44.95
13.2051	44.33
13.2152	46.23
13.2254	44.33
13.2355	46.55
13.2457	46.03
13.2559	45.64
13.266	45.62
13.2762	45.95
13.2864	44.60
13.2965	45.73
13.3067	46.80
13.3169	45.67
13.327	46.96
13.3372	44.66
13.3474	45.85
13.3575	46.52
13.3677	46.94
13.3778	46.57
13.388	46.66
13.3982	47.47
13.4083	46.19
13.4185	45.35
13.4287	46.43
13.4388	47.25
13.449	46.48
13.4592	47.12
13.4693	46.45
13.4795	46.72
13.4897	47.63
13.4998	47.69
13.51	47.42
13.5201	48.02
13.5303	47.30
13.5405	48.18
13.5506	47.94
13.5608	47.90
13.571	48.05
13.5811	48.62
13.5913	48.63
13.6015	49.68
13.6116	47.82
13.6218	48.31
13.632	48.66
13.6421	48.17
13.6523	48.80
13.6625	48.59
13.6726	48.47
13.6828	48.62
13.6929	49.43
13.7031	49.92
13.7133	49.00
13.7234	48.80
13.7336	48.97
13.7438	49.03
13.7539	49.48
13.7641	49.15
13.7743	49.77
13.7844	49.48
13.7946	50.77
13.8048	50.70
13.8149	50.05
13.8251	50.87
13.8352	50.24
13.8454	50.46
13.8556	50.95
13.8657	50.18
13.8759	51.23
13.8861	51.07
13.8962	50.45
13.9064	50.06
13.9166	51.39
13.9267	51.01
13.9369	50.90
13.9471	50.67
13.9572	51.60
13.9674	51.74
13.9776	51.13
13.9877	52.96
13.9979	51.40
14.008	51.60
14.0182	52.21
14.0284	52.38
14.0385	52.53
14.0487	52.68
14.0589	51.98
14.069	53.12
14.0792	52.32
14.0894	52.43
14.0995	52.54
14.1097	53.72
14.1199	52.34
14.13	53.90
14.1402	53.56
14.1503	52.92
14.1605	54.93
14.1707	52.99
14.1808	53.82
14.191	53.79
14.2012	52.57
14.2113	54.46
14.2215	54.98
14.2317	54.74
14.2418	54.88
14.252	54.30
14.2622	54.64
14.2723	54.40
14.2825	54.41
14.2927	55.59
14.3028	55.21
14.313	54.84
14.3231	54.30
14.3333	56.36
14.3435	55.77
14.3536	54.98
14.3638	55.55
14.374	57.29
14.3841	55.85
14.3943	56.54
14.4045	55.93
14.4146	56.87
14.4248	55.51
14.435	56.66
14.4451	55.54
14.4553	56.81
14.4654	56.99
14.4756	57.04
14.4858	58.15
14.4959	57.71
14.5061	58.26
14.5163	57.30
14.5264	59.20
14.5366	57.58
14.5468	57.54
14.5569	57.34
14.5671	59.00
14.5773	58.67
14.5874	58.06
14.5976	57.32
14.6078	59.64
14.6179	58.76
14.6281	58.94
14.6382	59.51
14.6484	59.22
14.6586	60.16
14.6687	59.46
14.6789	58.96
14.6891	58.82
14.6992	60.31
14.7094	60.02
14.7196	60.15
14.7297	59.27
14.7399	59.47
14.7501	60.23
14.7602	59.32
14.7704	62.14
14.7805	60.65
14.7907	59.72
14.8009	62.77
14.811	62.35
14.8212	60.77
14.8314	62.63
14.8415	63.28
14.8517	61.98
14.8619	61.17
14.872	61.60
14.8822	62.77
14.8924	61.03
14.9025	62.79
14.9127	62.64
14.9229	62.23
14.933	62.88
14.9432	61.91
14.9533	62.71
14.9635	64.29
14.9737	63.35
14.9838	64.07
14.994	64.10
15.0042	63.18
15.0143	65.14
15.0245	63.87
15.0347	63.58
15.0448	63.61
15.055	64.04
15.0652	63.26
15.0753	64.38
15.0855	64.59
15.0956	65.29
15.1058	63.60
15.116	65.62
15.1261	64.97
15.1363	64.64
15.1465	66.28
15.1566	65.86
15.1668	66.39
15.177	66.01
15.1871	65.20
15.1973	67.15
15.2075	65.48
15.2176	66.43
15.2278	67.57
15.238	67.88
15.2481	65.96
15.2583	66.88
15.2684	66.16
15.2786	67.60
15.2888	68.43
15.2989	67.98
15.3091	68.42
15.3193	67.15
15.3294	68.30
15.3396	67.93
15.3498	66.99
15.3599	70.05
15.3701	69.19
15.3803	68.27
15.3904	68.48
15.4006	69.04
15.4107	69.56
15.4209	69.42
15.4311	70.32
15.4412	70.68
15.4514	69.34
15.4616	70.90
15.4717	70.16
15.4819	69.28
15.4921	70.51
15.5022	70.36
15.5124	71.08
15.5226	71.25
15.5327	71.30
15.5429	70.96
15.553	71.32
15.5632	71.74
15.5734	71.19
15.5835	71.63
15.5937	71.46
15.6039	72.58
15.614	72.59
15.6242	72.53
15.6344	73.68
15.6445	73.90
15.6547	73.66
15.6649	74.01
15.675	72.27
15.6852	74.02
15.6954	73.78
15.7055	74.01
15.7157	73.74
15.7258	73.63
15.736	75.82
15.7462	75.47
15.7563	73.13
15.7665	74.04
15.7767	75.05
15.7868	75.62
15.797	75.24
15.8072	75.16
15.8173	76.22
15.8275	75.56
15.8377	76.55
15.8478	77.03
15.858	75.92
15.8681	76.63
15.8783	77.32
15.8885	76.18
15.8986	78.04
15.9088	78.94
15.919	78.82
15.9291	77.73
15.9393	76.91
15.9495	77.98
15.9596	78.05
15.9698	78.66
15.98	79.06
15.9901	80.19
16.0003	78.96
16.0105	78.48
16.0206	78.95
16.0308	80.34
16.0409	80.05
16.0511	79.63
16.0613	80.21
16.0714	81.63
16.0816	80.23
16.0918	80.68
16.1019	81.63
16.1121	82.14
16.1223	81.23
16.1324	80.55
16.1426	81.02
16.1528	81.32
16.1629	81.54
16.1731	83.35
16.1832	81.65
16.1934	82.85
16.2036	82.35
16.2137	83.48
16.2239	83.46
16.2341	83.59
16.2442	83.74
16.2544	82.98
16.2646	85.31
16.2747	85.16
16.2849	85.05
16.2951	84.49
16.3052	84.26
16.3154	84.57
16.3256	83.93
16.3357	85.48
16.3459	84.97
16.356	86.19
16.3662	85.55
16.3764	84.73
16.3865	86.42
16.3967	87.62
16.4069	87.06
16.417	88.32
16.4272	88.51
16.4374	87.40
16.4475	88.60
16.4577	88.29
16.4679	87.99
16.478	89.63
16.4882	88.37
16.4983	89.28
16.5085	89.65
16.5187	86.85
16.5288	89.55
16.539	89.23
16.5492	89.55
16.5593	90.05
16.5695	90.06
16.5797	91.05
16.5898	89.96
16.6	89.26
16.6102	90.27
16.6203	91.29
16.6305	92.20
16.6407	91.85
16.6508	91.37
16.661	92.27
16.6711	92.16
16.6813	91.51
16.6915	93.31
16.7016	92.93
16.7118	92.59
16.722	94.12
16.7321	93.14
16.7423	93.09
16.7525	94.40
16.7626	93.55
16.7728	93.59
16.783	95.30
16.7931	96.79
16.8033	96.09
16.8134	95.43
16.8236	95.96
16.8338	94.55
16.8439	97.60
16.8541	95.99
16.8643	97.37
16.8744	97.90
16.8846	96.16
16.8948	97.74
16.9049	97.87
16.9151	97.79
16.9253	97.93
16.9354	96.09
16.9456	97.71
16.9558	98.09
16.9659	97.57
16.9761	99.09
16.9862	97.95
16.9964	99.55
17.0066	99.63
17.0167	99.91
17.0269	99.69
17.0371	99.77
17.0472	99.57
17.0574	98.82
17.0676	100.29
17.0777	98.57
17.0879	101.07
17.0981	101.29
17.1082	101.01
17.1184	102.91
17.1285	100.93
17.1387	101.45
17.1489	104.23
17.159	101.87
17.1692	102.65
17.1794	102.24
17.1895	102.24
17.1997	101.96
17.2099	102.26
17.22	101.26
17.2302	103.05
17.2404	103.23
17.2505	102.85
17.2607	104.44
17.2709	104.95
17.281	103.90
17.2912	103.93
17.3013	105.04
17.3115	105.57
17.3217	104.66
17.3318	105.98
17.342	104.91
17.3522	106.50
17.3623	105.61
17.3725	105.77
17.3827	106.14
17.3928	107.79
17.403	107.69
17.4132	107.90
17.4233	106.67
17.4335	106.63
17.4436	109.79
17.4538	106.05
17.464	108.46
17.4741	108.73
17.4843	109.40
17.4945	108.71
17.5046	111.54
17.5148	109.95
17.525	110.21
17.5351	110.65
17.5453	112.43
17.5555	112.28
17.5656	112.76
17.5758	112.71
17.5859	113.18
17.5961	113.57
17.6063	114.76
17.6164	112.97
17.6266	116.15
17.6368	115.26
17.6469	115.34
17.6571	115.47
17.6673	117.17
17.6774	115.86
17.6876	116.03
17.6978	117.35
17.7079	118.79
17.7181	117.99
17.7283	118.62
17.7384	116.77
17.7486	117.67
17.7587	120.70
17.7689	121.09
17.7791	121.19
17.7892	121.96
17.7994	121.61
17.8096	121.63
17.8197	124.46
17.8299	122.74
17.8401	124.49
17.8502	124.80
17.8604	125.78
17.8706	125.79
17.8807	127.23
17.8909	128.00
17.901	129.33
17.9112	128.62
17.9214	129.28
17.9315	130.76
17.9417	132.71
17.9519	132.63
17.962	133.23
17.9722	133.96
17.9824	136.23
17.9925	135.29
18.0027	137.74
18.0129	138.59
18.023	137.70
18.0332	139.96
18.0434	141.64
18.0535	144.11
18.0637	146.01
18.0738	145.54
18.084	145.82
18.0942	148.85
18.1043	149.90
18.1145	150.45
18.1247	153.61
18.1348	153.75
18.145	155.09
18.1552	157.60
18.1653	158.26
18.1755	159.88
18.1857	162.67
18.1958	161.86
18.206	163.43
18.2161	166.96
18.2263	169.01
18.2365	169.72
18.2466	175.70
18.2568	176.24
18.267	176.93
18.2771	182.17
18.2873	183.68
18.2975	185.03
18.3076	188.55
18.3178	189.86
18.328	192.46
18.3381	197.98
18.3483	200.09
18.3585	201.83
18.3686	206.46
18.3788	208.70
18.3889	209.86
18.3991	215.84
18.4093	215.77
18.4194	217.83
18.4296	223.89
18.4398	225.85
18.4499	228.90
18.4601	233.23
18.4703	234.36
18.4804	234.58
18.4906	242.44
18.5008	243.47
18.5109	247.03
18.5211	250.39
18.5312	250.23
18.5414	254.05
18.5516	254.12
18.5617	257.68
18.5719	259.25
18.5821	263.80
18.5922	263.12
18.6024	263.81
18.6126	267.18
18.6227	269.63
18.6329	269.05
18.6431	271.76
18.6532	269.99
18.6634	271.79
18.6736	270.62
18.6837	269.68
18.6939	269.55
18.704	267.50
18.7142	266.90
18.7244	266.27
18.7345	264.96
18.7447	265.15
18.7549	260.32
18.765	260.80
18.7752	260.57
18.7854	257.88
18.7955	254.55
18.8057	251.52
18.8159	247.58
18.826	246.50
18.8362	243.31
18.8463	238.98
18.8565	235.51
18.8667	232.40
18.8768	230.93
18.887	226.65
18.8972	225.73
18.9073	221.58
18.9175	218.79
18.9277	215.51
18.9378	211.96
18.948	211.26
18.9582	206.90
18.9683	199.83
18.9785	198.46
18.9887	197.76
18.9988	193.63
19.009	193.09
19.0191	187.65
19.0293	184.82
19.0395	183.85
19.0496	180.80
19.0598	178.59
19.07	177.12
19.0801	173.91
19.0903	173.40
19.1005	172.02
19.1106	166.76
19.1208	165.48
19.131	164.77
19.1411	161.99
19.1513	160.63
19.1614	159.11
19.1716	157.50
19.1818	156.88
19.1919	154.91
19.2021	154.91
19.2123	150.67
19.2224	151.72
19.2326	150.49
19.2428	149.32
19.2529	146.54
19.2631	146.02
19.2733	144.39
19.2834	141.58
19.2936	143.62
19.3038	141.77
19.3139	141.79
19.3241	141.03
19.3342	137.38
19.3444	139.43
19.3546	138.15
19.3647	137.27
19.3749	135.95
19.3851	135.78
19.3952	134.13
19.4054	135.59
19.4156	133.17
19.4257	133.09
19.4359	132.33
19.4461	133.83
19.4562	131.98
19.4664	133.17
19.4765	132.45
19.4867	128.93
19.4969	130.10
19.507	129.05
19.5172	128.44
19.5274	128.43
19.5375	129.84
19.5477	127.43
19.5579	128.49
19.568	127.25
19.5782	128.62
19.5884	127.40
19.5985	125.15
19.6087	125.87
19.6188	126.22
19.629	126.21
19.6392	126.97
19.6493	125.81
19.6595	125.76
19.6697	124.61
19.6798	125.42
19.69	125.32
19.7002	123.74
19.7103	123.86
19.7205	124.85
19.7307	123.14
19.7408	125.05
19.751	124.31
19.7612	125.31
19.7713	124.23
19.7815	124.07
19.7916	124.47
19.8018	125.02
19.812	123.90
19.8221	124.37
19.8323	124.08
19.8425	124.84
19.8526	122.71
19.8628	124.29
19.873	124.77
19.8831	123.00
19.8933	124.38
19.9035	125.34
19.9136	125.04
19.9238	125.24
19.9339	124.68
19.9441	125.30
19.9543	127.90
19.9644	125.79
19.9746	125.37
19.9848	126.68
19.9949	128.05
20.0051	127.35
20.0153	127.63
20.0254	128.99
20.0356	126.05
20.0458	127.97
20.0559	128.25
20.0661	127.78
20.0763	129.21
20.0864	127.98
20.0966	126.87
20.1067	130.26
20.1169	128.55
20.1271	129.91
20.1372	130.10
20.1474	130.39
20.1576	130.41
20.1677	132.48
20.1779	130.27
20.1881	132.10
20.1982	134.02
20.2084	133.71
20.2186	131.57
20.2287	135.12
20.2389	134.26
20.249	133.62
20.2592	135.02
20.2694	135.46
20.2795	135.27
20.2897	136.49
20.2999	136.60
20.31	135.49
20.3202	137.54
20.3304	139.26
20.3405	137.30
20.3507	139.79
20.3609	139.18
20.371	140.10
20.3812	141.14
20.3914	142.30
20.4015	139.62
20.4117	142.38
20.4218	142.84
20.432	140.98
20.4422	143.36
20.4523	143.82
20.4625	144.49
20.4727	143.11
20.4828	145.55
20.493	142.62
20.5032	145.15
20.5133	144.50
20.5235	146.35
20.5337	147.08
20.5438	146.02
20.554	145.23
20.5641	147.32
20.5743	148.90
20.5845	145.81
20.5946	147.40
20.6048	146.32
20.615	145.21
20.6251	145.93
20.6353	146.49
20.6455	144.65
20.6556	146.79
20.6658	147.69
20.676	144.07
20.6861	145.70
20.6963	144.71
20.7065	143.81
20.7166	143.35
20.7268	144.12
20.7369	141.91
20.7471	143.13
20.7573	143.25
20.7674	141.18
20.7776	141.16
20.7878	141.24
20.7979	138.59
20.8081	140.04
20.8183	137.05
20.8284	139.01
20.8386	139.48
20.8488	137.59
20.8589	135.07
20.8691	137.45
20.8792	134.79
20.8894	132.60
20.8996	135.57
20.9097	132.21
20.9199	131.19
20.9301	132.11
20.9402	129.89
20.9504	129.07
20.9606	131.85
20.9707	129.58
20.9809	127.71
20.9911	128.20
21.0012	127.90
21.0114	125.98
21.0216	124.66
21.0317	124.68
21.0419	125.18
21.052	123.97
21.0622	124.32
21.0724	124.65
21.0825	121.90
21.0927	120.33
21.1029	119.69
21.113	119.88
21.1232	120.78
21.1334	119.62
21.1435	120.73
21.1537	118.87
21.1639	117.51
21.174	117.95
21.1842	116.29
21.1943	115.24
21.2045	116.24
21.2147	116.45
21.2248	115.03
21.235	115.43
21.2452	115.50
21.2553	113.74
21.2655	114.35
21.2757	113.51
21.2858	112.64
21.296	112.26
21.3062	114.74
21.3163	114.76
21.3265	113.74
21.3366	113.40
21.3468	112.07
21.357	112.77
21.3671	112.76
21.3773	110.79
21.3875	111.90
21.3976	112.71
21.4078	111.76
21.418	112.14
21.4281	113.05
21.4383	111.16
21.4485	110.97
21.4586	111.24
21.4688	110.84
21.479	113.16
21.4891	112.34
21.4993	110.90
21.5094	110.68
21.5196	112.53
21.5298	111.55
21.5399	113.37
21.5501	112.62
21.5603	112.70
21.5704	113.62
21.5806	112.76
21.5908	111.50
21.6009	114.00
21.6111	114.46
21.6213	114.01
21.6314	112.59
21.6416	112.54
21.6517	114.20
21.6619	115.35
21.6721	116.63
21.6822	115.36
21.6924	116.93
21.7026	116.60
21.7127	116.65
21.7229	118.95
21.7331	118.99
21.7432	118.75
21.7534	120.92
21.7636	121.47
21.7737	119.12
21.7839	122.32
21.7941	124.33
21.8042	122.57
21.8144	125.29
21.8245	125.81
21.8347	125.58
21.8449	126.96
21.855	126.75
21.8652	127.18
21.8754	128.34
21.8855	127.55
21.8957	129.47
21.9059	131.74
21.916	131.82
21.9262	131.74
21.9364	133.42
21.9465	133.95
21.9567	134.65
21.9668	137.88
21.977	137.63
21.9872	136.75
21.9973	138.71
22.0075	140.73
22.0177	139.25
22.0278	140.19
22.038	142.04
22.0482	140.82
22.0583	145.15
22.0685	145.02
22.0787	144.27
22.0888	144.62
22.099	148.45
22.1092	147.96
22.1193	148.43
22.1295	151.48
22.1396	149.91
22.1498	150.15
22.16	152.94
22.1701	152.01
22.1803	154.66
22.1905	155.69
22.2006	157.12
22.2108	156.23
22.221	159.70
22.2311	157.01
22.2413	160.75
22.2515	162.35
22.2616	159.99
22.2718	162.66
22.2819	163.94
22.2921	162.95
22.3023	166.06
22.3124	166.96
22.3226	165.60
22.3328	166.30
22.3429	170.16
22.3531	168.20
22.3633	169.22
22.3734	169.34
22.3836	168.29
22.3938	171.30
22.4039	168.91
22.4141	171.11
22.4243	172.63
22.4344	172.34
22.4446	169.60
22.4547	170.56
22.4649	172.44
22.4751	170.80
22.4852	172.49
22.4954	170.23
22.5056	171.15
22.5157	170.11
22.5259	172.00
22.5361	166.96
22.5462	171.23
22.5564	168.57
22.5666	166.21
22.5767	167.86
22.5869	166.40
22.597	164.83
22.6072	166.85
22.6174	163.71
22.6275	162.57
22.6377	165.31
22.6479	162.85
22.658	162.46
22.6682	161.68
22.6784	161.40
22.6885	158.10
22.6987	160.93
22.7089	156.39
22.719	156.09
22.7292	157.77
22.7394	154.19
22.7495	152.60
22.7597	152.84
22.7698	151.66
22.78	149.51
22.7902	150.95
22.8003	147.68
22.8105	146.93
22.8207	144.97
22.8308	145.95
22.841	140.81
22.8512	143.04
22.8613	141.60
22.8715	139.90
22.8817	141.03
22.8918	141.07
22.902	138.65
22.9121	135.85
22.9223	135.88
22.9325	132.52
22.9426	132.92
22.9528	131.40
22.963	130.26
22.9731	129.82
22.9833	129.10
22.9935	129.46
23.0036	126.89
23.0138	125.49
23.024	124.53
23.0341	122.27
23.0443	121.20
23.0545	121.77
23.0646	120.32
23.0748	118.01
23.0849	118.97
23.0951	118.26
23.1053	115.91
23.1154	115.80
23.1256	115.10
23.1358	113.45
23.1459	111.34
23.1561	112.76
23.1663	110.20
23.1764	108.99
23.1866	109.72
23.1968	108.30
23.2069	108.39
23.2171	107.51
23.2272	105.26
23.2374	104.32
23.2476	104.85
23.2577	104.12
23.2679	103.59
23.2781	102.48
23.2882	102.01
23.2984	102.41
23.3086	100.16
23.3187	99.06
23.3289	100.23
23.3391	98.02
23.3492	96.24
23.3594	96.15
23.3695	97.32
23.3797	95.05
23.3899	95.90
23.4	94.80
23.4102	92.83
23.4204	93.52
23.4305	93.01
23.4407	91.59
23.4509	91.44
23.461	90.63
23.4712	90.04
23.4814	89.95
23.4915	88.59
23.5017	88.80
23.5119	88.91
23.522	88.20
23.5322	87.57
23.5423	86.82
23.5525	86.00
23.5627	84.07
23.5728	84.42
23.583	83.73
23.5932	84.83
23.6033	82.97
23.6135	83.35
23.6237	81.91
23.6338	82.87
23.644	81.98
23.6542	80.50
23.6643	80.71
23.6745	81.48
23.6846	79.83
23.6948	80.07
23.705	79.84
23.7151	77.60
23.7253	77.06
23.7355	76.65
23.7456	77.54
23.7558	77.17
23.766	76.20
23.7761	75.82
23.7863	76.04
23.7965	75.49
23.8066	76.45
23.8168	75.33
23.827	75.48
23.8371	74.43
23.8473	73.38
23.8574	73.16
23.8676	73.11
23.8778	73.36
23.8879	72.84
23.8981	72.38
23.9083	72.07
23.9184	72.09
23.9286	72.28
23.9388	72.13
23.9489	70.87
23.9591	69.91
23.9693	70.43
23.9794	69.77
23.9896	71.08
23.9997	70.52
24.0099	70.78
24.0201	69.98
24.0302	69.38
24.0404	68.48
24.0506	67.34
24.0607	68.28
24.0709	68.95
24.0811	67.38
24.0912	68.76
24.1014	67.52
24.1116	66.90
24.1217	67.04
24.1319	67.06
24.1421	66.80
24.1522	67.07
24.1624	65.49
24.1725	66.38
24.1827	65.94
24.1929	64.91
24.203	65.54
24.2132	66.29
24.2234	65.33
24.2335	64.66
24.2437	64.90
24.2539	65.54
24.264	64.37
24.2742	63.26
24.2844	64.65
24.2945	63.55
24.3047	63.12
24.3148	64.70
24.325	63.80
24.3352	64.84
24.3453	63.15
24.3555	63.39
24.3657	62.92
24.3758	62.76
24.386	63.24
24.3962	62.65
24.4063	62.84
24.4165	62.30
24.4267	63.00
24.4368	62.02
24.447	62.87
24.4572	62.59
24.4673	62.74
24.4775	62.76
24.4876	61.52
24.4978	60.70
24.508	62.18
24.5181	60.37
24.5283	61.35
24.5385	60.04
24.5486	60.39
24.5588	60.67
24.569	60.62
24.5791	60.83
24.5893	61.15
24.5995	59.50
24.6096	60.98
24.6198	60.34
24.6299	59.85
24.6401	59.95
24.6503	59.46
24.6604	59.80
24.6706	59.32
24.6808	58.69
24.6909	60.51
24.7011	58.99
24.7113	58.01
24.7214	59.15
24.7316	59.08
24.7418	59.28
24.7519	58.10
24.7621	59.13
24.7723	59.43
24.7824	57.05
24.7926	57.79
24.8027	57.91
24.8129	58.18
24.8231	58.46
24.8332	58.08
24.8434	57.65
24.8536	57.45
24.8637	57.26
24.8739	57.70
24.8841	57.18
24.8942	57.42
24.9044	56.76
24.9146	57.91
24.9247	57.56
24.9349	57.77
24.945	57.43
24.9552	56.59
24.9654	58.09
24.9755	56.65
24.9857	57.44
24.9959	56.88
25.006	56.75
25.0162	57.41
25.0264	56.27
25.0365	55.70
25.0467	56.70
25.0569	57.26
25.067	55.99
25.0772	55.64
25.0874	56.08
25.0975	55.52
25.1077	55.69
25.1178	56.27
25.128	55.97
25.1382	56.20
25.1483	56.60
25.1585	56.32
25.1687	55.71
25.1788	55.32
25.189	55.56
25.1992	54.90
25.2093	54.65
25.2195	55.59
25.2297	56.70
25.2398	55.79
25.25	55.80
25.2601	54.50
25.2703	55.50
25.2805	53.70
25.2906	55.40
25.3008	54.80
25.311	55.74
25.3211	54.65
25.3313	55.32
25.3415	56.15
25.3516	54.86
25.3618	54.54
25.372	54.62
25.3821	54.11
25.3923	54.66
25.4024	55.18
25.4126	54.74
25.4228	54.66
25.4329	54.86
25.4431	53.89
25.4533	55.24
25.4634	53.45
25.4736	54.16
25.4838	55.10
25.4939	55.02
25.5041	54.18
25.5143	53.29
25.5244	54.88
25.5346	54.59
25.5448	54.04
25.5549	54.74
25.5651	53.45
25.5752	53.38
25.5854	53.93
25.5956	54.06
25.6057	54.86
25.6159	53.21
25.6261	54.13
25.6362	53.73
25.6464	52.84
25.6566	54.26
25.6667	54.30
25.6769	53.32
25.6871	52.05
25.6972	54.09
25.7074	54.24
25.7175	53.33
25.7277	53.02
25.7379	52.95
25.748	53.57
25.7582	53.12
25.7684	53.43
25.7785	54.05
25.7887	53.01
25.7989	52.85
25.809	52.91
25.8192	52.93
25.8294	53.07
25.8395	52.95
25.8497	52.43
25.8599	51.43
25.87	52.84
25.8802	51.44
25.8903	52.13
25.9005	52.52
25.9107	53.29
25.9208	52.09
25.931	51.46
25.9412	52.67
25.9513	51.74
25.9615	52.49
25.9717	51.32
25.9818	52.60
25.992	50.56
26.0022	51.55
26.0123	51.51
26.0225	51.55
26.0326	51.21
26.0428	51.08
26.053	51.95
26.0631	51.12
26.0733	51.20
26.0835	50.98
26.0936	51.24
26.1038	50.27
26.114	50.01
26.1241	51.78
26.1343	51.27
26.1445	50.36
26.1546	50.97
26.1648	50.50
26.175	50.27
26.1851	50.71
26.1953	50.40
26.2054	50.24
26.2156	49.90
26.2258	50.32
26.2359	50.72
26.2461	50.24
26.2563	49.29
26.2664	49.32
26.2766	49.65
26.2868	49.15
26.2969	50.15
26.3071	49.74
26.3173	49.12
26.3274	50.01
26.3376	49.70
26.3477	50.26
26.3579	48.95
26.3681	49.74
26.3782	49.59
26.3884	49.50
26.3986	48.99
26.4087	49.49
26.4189	49.45
26.4291	49.77
26.4392	49.36
26.4494	48.23
26.4596	48.73
26.4697	49.28
26.4799	48.60
26.4901	49.68
26.5002	48.39
26.5104	48.63
26.5205	48.39
26.5307	47.93
26.5409	48.41
26.551	48.35
26.5612	49.17
26.5714	48.71
26.5815	48.46
26.5917	48.67
26.6019	47.69
26.612	48.74
26.6222	47.82
26.6324	48.56
26.6425	48.65
26.6527	48.28
26.6628	48.83
26.673	49.01
26.6832	47.96
26.6933	47.85
26.7035	48.92
26.7137	47.44
26.7238	48.13
26.734	48.19
26.7442	49.23
26.7543	47.08
26.7645	48.33
26.7747	47.40
26.7848	48.41
26.795	47.37
26.8052	48.21
26.8153	48.05
26.8255	46.24
26.8356	47.12
26.8458	47.37
26.856	47.43
26.8661	47.24
26.8763	46.20
26.8865	47.20
26.8966	47.02
26.9068	47.63
26.917	46.24
26.9271	47.95
26.9373	47.04
26.9475	46.79
26.9576	46.76
26.9678	47.80
26.9779	47.42
26.9881	47.31
26.9983	47.91
27.0084	46.90
27.0186	47.39
27.0288	47.40
27.0389	46.98
27.0491	46.53
27.0593	46.70
27.0694	47.03
27.0796	46.45
27.0898	47.55
27.0999	47.40
27.1101	46.38
27.1202	46.93
27.1304	48.20
27.1406	47.34
27.1507	47.45
27.1609	46.60
27.1711	47.45
27.1812	47.30
27.1914	46.67
27.2016	47.01
27.2117	47.52
27.2219	46.56
27.2321	47.18
27.2422	48.11
27.2524	47.26
27.2626	47.43
27.2727	46.38
27.2829	47.82
27.293	47.37
27.3032	46.76
27.3134	47.07
27.3235	46.40
27.3337	46.64
27.3439	46.49
27.354	47.16
27.3642	47.02
27.3744	47.81
27.3845	47.57
27.3947	47.65
27.4049	47.71
27.415	48.51
27.4252	47.87
27.4353	47.09
27.4455	47.55
27.4557	46.65
27.4658	46.91
27.476	47.61
27.4862	48.19
27.4963	48.60
27.5065	49.09
27.5167	48.38
27.5268	47.14
27.537	48.48
27.5472	48.30
27.5573	48.87
27.5675	47.14
27.5777	48.22
27.5878	48.67
27.598	48.24
27.6081	48.09
27.6183	48.07
27.6285	49.51
27.6386	48.92
27.6488	49.02
27.659	49.91
27.6691	49.02
27.6793	50.00
27.6895	49.05
27.6996	49.91
27.7098	51.04
27.72	50.59
27.7301	50.89
27.7403	49.91
27.7504	51.07
27.7606	50.96
27.7708	50.01
27.7809	51.12
27.7911	51.18
27.8013	51.53
27.8114	49.99
27.8216	51.39
27.8318	50.87
27.8419	51.64
27.8521	52.84
27.8623	52.35
27.8724	52.12
27.8826	52.61
27.8928	53.04
27.9029	54.36
27.9131	53.82
27.9232	53.98
27.9334	53.74
27.9436	54.10
27.9537	55.03
27.9639	55.60
27.9741	55.55
27.9842	56.36
27.9944	55.19
28.0046	56.55
28.0147	58.25
28.0249	57.23
28.0351	57.12
28.0452	57.90
28.0554	57.97
28.0655	57.91
28.0757	57.91
28.0859	60.10
28.096	60.38
28.1062	60.18
28.1164	61.72
28.1265	60.88
28.1367	62.50
28.1469	62.74
28.157	61.08
28.1672	62.66
28.1774	62.88
28.1875	64.20
28.1977	64.13
28.2079	64.75
28.218	64.23
28.2282	64.63
28.2383	64.97
28.2485	66.44
28.2587	66.80
28.2688	67.19
28.279	67.36
28.2892	67.98
28.2993	67.43
28.3095	68.41
28.3197	69.75
28.3298	70.24
28.34	68.17
28.3502	69.62
28.3603	70.39
28.3705	70.10
28.3806	70.37
28.3908	70.40
28.401	71.46
28.4111	70.79
28.4213	71.41
28.4315	71.86
28.4416	71.23
28.4518	71.57
28.462	72.26
28.4721	71.88
28.4823	72.24
28.4925	74.63
28.5026	72.87
28.5128	73.88
28.523	72.15
28.5331	74.12
28.5433	73.40
28.5534	73.49
28.5636	73.26
28.5738	74.20
28.5839	73.35
28.5941	72.75
28.6043	73.45
28.6144	72.61
28.6246	73.01
28.6348	72.95
28.6449	71.63
28.6551	73.03
28.6653	72.14
28.6754	70.94
28.6856	71.99
28.6957	71.09
28.7059	70.91
28.7161	70.80
28.7262	70.71
28.7364	69.71
28.7466	69.10
28.7567	69.25
28.7669	68.45
28.7771	69.24
28.7872	68.23
28.7974	67.94
28.8076	68.26
28.8177	68.37
28.8279	65.16
28.8381	66.66
28.8482	66.56
28.8584	65.01
28.8685	65.32
28.8787	64.61
28.8889	63.97
28.899	65.52
28.9092	64.79
28.9194	62.76
28.9295	62.53
28.9397	62.57
28.9499	62.73
28.96	61.03
28.9702	61.81
28.9804	60.60
28.9905	60.76
29.0007	60.53
29.0108	59.59
29.021	59.44
29.0312	59.63
29.0413	57.78
29.0515	58.71
29.0617	58.47
29.0718	57.53
29.082	58.22
29.0922	57.75
29.1023	56.66
29.1125	55.73
29.1227	56.64
29.1328	56.02
29.143	55.84
29.1531	55.23
29.1633	54.07
29.1735	54.68
29.1836	54.43
29.1938	53.77
29.204	53.96
29.2141	52.42
29.2243	53.39
29.2345	52.46
29.2446	52.83
29.2548	51.98
29.265	51.65
29.2751	52.10
29.2853	51.66
29.2955	51.02
29.3056	52.13
29.3158	51.02
29.3259	50.52
29.3361	50.85
29.3463	49.66
29.3564	49.79
29.3666	49.45
29.3768	49.31
29.3869	49.26
29.3971	50.48
29.4073	48.95
29.4174	48.02
29.4276	48.15
29.4378	48.40
29.4479	47.17
29.4581	47.39
29.4682	47.32
29.4784	47.78
29.4886	46.68
29.4987	47.98
29.5089	47.20
29.5191	46.99
29.5292	45.59
29.5394	46.77
29.5496	46.38
29.5597	46.18
29.5699	46.76
29.5801	45.63
29.5902	46.01
29.6004	45.59
29.6106	44.49
29.6207	44.94
29.6309	45.04
29.641	44.98
29.6512	44.06
29.6614	44.77
29.6715	45.72
29.6817	44.99
29.6919	45.01
29.702	44.80
29.7122	44.38
29.7224	43.68
29.7325	43.40
29.7427	44.59
29.7529	43.60
29.763	45.30
29.7732	43.24
29.7833	42.84
29.7935	43.48
29.8037	43.36
29.8138	42.62
29.824	42.79
29.8342	42.79
29.8443	43.26
29.8545	43.82
29.8647	42.88
29.8748	43.10
29.885	43.30
29.8952	42.68
29.9053	43.38
29.9155	42.79
29.9257	43.66
29.9358	43.16
29.946	41.87
29.9561	41.74
29.9663	41.45
29.9765	42.57
29.9866	41.94
29.9968	42.55
30.007	42.97
30.0171	42.38
30.0273	42.07
30.0375	42.54
30.0476	40.87
30.0578	42.22
30.068	42.19
30.0781	42.37
30.0883	42.07
30.0984	41.92
30.1086	41.18
30.1188	41.08
30.1289	42.07
30.1391	41.84
30.1493	41.13
30.1594	42.25
30.1696	40.70
30.1798	41.32
30.1899	40.69
30.2001	40.97
30.2103	40.51
30.2204	41.39
30.2306	39.74
30.2408	40.55
30.2509	41.05
30.2611	40.26
30.2712	40.77
30.2814	40.04
30.2916	39.71
30.3017	39.43
30.3119	40.09
30.3221	39.92
30.3322	38.79
30.3424	39.75
30.3526	39.33
30.3627	39.21
30.3729	38.87
30.3831	38.40
30.3932	39.12
30.4034	38.74
30.4135	38.70
30.4237	39.60
30.4339	38.60
30.444	37.90
30.4542	38.65
30.4644	37.09
30.4745	37.40
30.4847	37.87
30.4949	37.62
30.505	36.59
30.5152	38.15
30.5254	37.49
30.5355	36.40
30.5457	37.05
30.5559	37.94
30.566	37.44
30.5762	37.05
30.5863	37.34
30.5965	36.79
30.6067	36.93
30.6168	36.13
30.627	36.35
30.6372	36.45
30.6473	36.25
30.6575	36.20
30.6677	36.39
30.6778	36.43
30.688	36.72
30.6982	36.12
30.7083	36.93
30.7185	35.13
30.7286	34.85
30.7388	36.18
30.749	35.39
30.7591	35.90
30.7693	35.40
30.7795	35.61
30.7896	34.96
30.7998	34.90
30.81	35.05
30.8201	35.72
30.8303	34.77
30.8405	34.19
30.8506	35.35
30.8608	34.41
30.871	34.89
30.8811	34.83
30.8913	35.30
30.9014	34.66
30.9116	34.45
30.9218	34.88
30.9319	34.80
30.9421	34.64
30.9523	34.36
30.9624	34.19
30.9726	34.99
30.9828	35.36
30.9929	35.01
31.0031	33.45
31.0133	34.45
31.0234	34.05
31.0336	33.47
31.0437	34.17
31.0539	33.92
31.0641	33.57
31.0742	33.16
31.0844	33.93
31.0946	33.74
31.1047	34.48
31.1149	33.68
31.1251	33.88
31.1352	33.34
31.1454	33.90
31.1556	32.95
31.1657	33.87
31.1759	33.45
31.186	33.41
31.1962	34.09
31.2064	32.84
31.2165	34.26
31.2267	32.38
31.2369	33.01
31.247	32.21
31.2572	33.91
31.2674	32.52
31.2775	32.79
31.2877	32.62
31.2979	32.61
31.308	32.49
31.3182	33.54
31.3284	32.22
31.3385	33.33
31.3487	33.20
31.3588	33.39
31.369	33.07
31.3792	33.21
31.3893	31.88
31.3995	32.49
31.4097	32.39
31.4198	33.59
31.43	33.52
31.4402	32.22
31.4503	32.76
31.4605	31.96
31.4707	33.63
31.4808	33.37
31.491	32.76
31.5011	32.79
31.5113	33.30
31.5215	32.37
31.5316	33.13
31.5418	33.24
31.552	32.53
31.5621	32.98
31.5723	32.12
31.5825	32.27
31.5926	32.21
31.6028	32.19
31.613	32.99
31.6231	33.40
31.6333	32.61
31.6435	32.36
31.6536	32.09
31.6638	32.31
31.6739	32.20
31.6841	32.38
31.6943	32.07
31.7044	32.05
31.7146	32.88
31.7248	31.80
31.7349	32.55
31.7451	33.55
31.7553	31.93
31.7654	32.10
31.7756	32.61
31.7858	31.80
31.7959	31.80
31.8061	31.35
31.8162	31.93
31.8264	32.29
31.8366	32.27
31.8467	32.49
31.8569	32.08
31.8671	33.45
31.8772	32.33
31.8874	32.30
31.8976	31.82
31.9077	31.59
31.9179	32.71
31.9281	33.23
31.9382	31.97
31.9484	31.97
31.9586	32.65
31.9687	31.52
31.9789	32.65
31.989	32.01
31.9992	31.50
32.0094	32.06
32.0195	32.70
32.0297	32.70
32.0399	33.68
32.05	32.57
32.0602	31.51
32.0704	32.48
32.0805	32.10
32.0907	31.78
32.1009	32.13
32.111	32.72
32.1212	32.30
32.1313	32.66
32.1415	32.93
32.1517	32.17
32.1618	32.69
32.172	32.27
32.1822	32.52
32.1923	32.98
32.2025	32.39
32.2127	32.60
32.2228	32.27
32.233	31.92
32.2432	32.87
32.2533	32.39
32.2635	32.85
32.2737	32.85
32.2838	32.41
32.294	33.39
32.3041	32.73
32.3143	33.32
32.3245	33.00
32.3346	32.99
32.3448	33.38
32.355	33.58
32.3651	32.74
32.3753	32.78
32.3855	33.34
32.3956	32.43
32.4058	32.64
32.416	33.32
32.4261	31.83
32.4363	32.99
32.4464	33.74
32.4566	32.85
32.4668	32.80
32.4769	33.16
32.4871	33.41
32.4973	32.90
32.5074	33.33
32.5176	32.91
32.5278	33.44
32.5379	33.65
32.5481	32.96
32.5583	33.71
32.5684	33.48
32.5786	33.01
32.5888	32.71
32.5989	33.03
32.6091	33.44
32.6192	33.03
32.6294	32.60
32.6396	32.34
32.6497	32.68
32.6599	33.03
32.6701	33.73
32.6802	32.70
32.6904	32.43
32.7006	32.74
32.7107	32.80
32.7209	33.68
32.7311	32.84
32.7412	32.78
32.7514	32.67
32.7615	32.58
32.7717	32.60
32.7819	34.04
32.792	32.78
32.8022	32.57
32.8124	32.86
32.8225	32.39
32.8327	32.24
32.8429	33.77
32.853	32.40
32.8632	32.27
32.8734	33.16
32.8835	32.51
32.8937	32.63
32.9039	33.00
32.914	32.93
32.9242	32.64
32.9343	33.91
32.9445	32.40
32.9547	32.96
32.9648	32.07
32.975	33.29
32.9852	32.49
32.9953	33.06
33.0055	33.73
33.0157	33.29
33.0258	32.38
33.036	32.93
33.0462	32.64
33.0563	31.73
33.0665	32.63
33.0766	33.80
33.0868	33.71
33.097	33.21
33.1071	33.26
33.1173	32.49
33.1275	33.30
33.1376	32.34
33.1478	33.63
33.158	33.26
33.1681	32.61
33.1783	33.38
33.1885	33.74
33.1986	33.53
33.2088	32.80
33.2189	33.48
33.2291	33.61
33.2393	32.59
33.2494	34.07
33.2596	33.39
33.2698	33.03
33.2799	33.11
33.2901	33.48
33.3003	33.47
33.3104	33.36
33.3206	33.52
33.3308	33.80
33.3409	32.15
33.3511	32.69
33.3613	33.18
33.3714	33.80
33.3816	33.44
33.3917	33.54
33.4019	33.41
33.4121	32.96
33.4222	32.47
33.4324	33.85
33.4426	33.11
33.4527	33.29
33.4629	33.80
33.4731	33.46
33.4832	33.16
33.4934	33.49
33.5036	32.58
33.5137	31.78
33.5239	33.05
33.534	32.88
33.5442	32.17
33.5544	32.35
33.5645	31.89
33.5747	32.15
33.5849	32.29
33.595	31.85
33.6052	32.64
33.6154	32.07
33.6255	31.84
33.6357	31.46
33.6459	31.38
33.656	31.77
33.6662	32.02
33.6764	31.71
33.6865	31.71
33.6967	31.20
33.7068	31.60
33.717	31.65
33.7272	30.64
33.7373	30.91
33.7475	30.66
33.7577	31.56
33.7678	31.29
33.778	30.35
33.7882	29.79
33.7983	30.47
33.8085	30.04
33.8187	30.46
33.8288	30.08
33.839	30.12
33.8491	29.67
33.8593	29.55
33.8695	29.18
33.8796	29.40
33.8898	29.71
33.9	29.37
33.9101	29.71
33.9203	29.53
33.9305	28.92
33.9406	28.87
33.9508	29.09
33.961	28.58
33.9711	28.34
33.9813	28.18
33.9915	28.65
34.0016	28.15
34.0118	27.68
34.0219	28.18
34.0321	28.52
34.0423	27.91
34.0524	27.52
34.0626	28.04
34.0728	27.71
34.0829	27.27
34.0931	28.30
34.1033	27.70
34.1134	27.44
34.1236	27.80
34.1338	27.85
34.1439	26.87
34.1541	27.50
34.1642	27.32
34.1744	27.26
34.1846	27.21
34.1947	26.98
34.2049	26.93
34.2151	27.29
34.2252	26.95
34.2354	26.39
34.2456	26.49
34.2557	27.67
34.2659	26.68
34.2761	26.72
34.2862	27.30
34.2964	26.65
34.3066	26.33
34.3167	26.51
34.3269	26.88
34.337	26.54
34.3472	26.79
34.3574	26.28
34.3675	26.04
34.3777	27.35
34.3879	26.10
34.398	25.96
34.4082	26.34
34.4184	26.67
34.4285	26.69
34.4387	25.40
34.4489	26.37
34.459	26.51
34.4692	26.82
34.4793	25.47
34.4895	26.13
34.4997	26.34
34.5098	26.07
34.52	25.54
34.5302	25.79
34.5403	26.17
34.5505	25.97
34.5607	26.37
34.5708	26.09
34.581	26.26
34.5912	26.25
34.6013	26.16
34.6115	25.46
34.6217	26.34
34.6318	26.17
34.642	25.51
34.6521	25.66
34.6623	26.10
34.6725	25.42
34.6826	25.84
34.6928	26.05
34.703	26.36
34.7131	25.88
34.7233	24.85
34.7335	25.35
34.7436	25.66
34.7538	26.02
34.764	25.50
34.7741	24.96
34.7843	25.09
34.7944	25.68
34.8046	24.88
34.8148	25.58
34.8249	25.18
34.8351	25.40
34.8453	25.54
34.8554	25.23
34.8656	24.98
34.8758	24.85
34.8859	25.32
34.8961	25.35
34.9063	25.90
34.9164	25.09
34.9266	25.85
34.9367	25.63
34.9469	25.69
34.9571	25.29
34.9672	24.85
34.9774	25.15
34.9876	24.84
34.9977	25.07
35.0079	24.92
35.0181	24.73
35.0282	25.47
35.0384	24.73
35.0486	24.85
35.0587	24.79
35.0689	25.10
35.0791	25.26
35.0892	25.18
35.0994	25.21
35.1095	25.35
35.1197	24.94
35.1299	24.83
35.14	25.78
35.1502	24.80
35.1604	25.24
35.1705	24.95
35.1807	25.10
35.1909	24.95
35.201	25.45
35.2112	23.98
35.2214	24.12
35.2315	25.36
35.2417	25.32
35.2518	25.04
35.262	25.21
35.2722	24.70
35.2823	25.80
35.2925	24.78
35.3027	24.52
35.3128	24.35
35.323	24.52
35.3332	24.82
35.3433	24.42
35.3535	24.79
35.3637	24.48
35.3738	24.23
35.384	24.99
35.3942	24.46
35.4043	24.49
35.4145	24.16
35.4246	24.57
35.4348	25.39
35.445	25.35
35.4551	24.65
35.4653	24.46
35.4755	24.46
35.4856	24.01
35.4958	23.89
35.506	24.99
35.5161	24.99
35.5263	23.87
35.5365	24.45
35.5466	24.38
35.5568	24.89
35.5669	24.30
35.5771	24.46
35.5873	23.96
35.5974	23.91
35.6076	25.30
35.6178	24.54
35.6279	24.26
35.6381	24.70
35.6483	24.08
35.6584	24.75
35.6686	24.65
35.6788	24.35
35.6889	23.62
35.6991	23.69
35.7093	23.50
35.7194	24.54
35.7296	24.02
35.7397	23.62
35.7499	23.51
35.7601	24.98
35.7702	23.92
35.7804	23.90
35.7906	25.02
35.8007	23.94
35.8109	24.20
35.8211	24.24
35.8312	24.54
35.8414	24.09
35.8516	24.57
35.8617	24.05
35.8719	24.25
35.882	24.26
35.8922	24.14
35.9024	24.10
35.9125	24.43
35.9227	24.30
35.9329	24.35
35.943	24.32
35.9532	24.53
35.9634	24.37
35.9735	23.95
35.9837	24.24
35.9939	24.36
36.004	24.65
36.0142	24.21
36.0244	24.25
36.0345	23.61
36.0447	23.62
36.0548	24.75
36.065	25.01
36.0752	24.13
36.0853	24.32
36.0955	23.81
36.1057	24.21
36.1158	24.73
36.126	24.93
36.1362	24.38
36.1463	23.84
36.1565	23.90
36.1667	23.66
36.1768	23.17
36.187	24.10
36.1971	23.66
36.2073	23.92
36.2175	23.68
36.2276	24.23
36.2378	24.30
36.248	24.35
36.2581	24.16
36.2683	24.09
36.2785	23.49
36.2886	23.65
36.2988	23.97
36.309	23.81
36.3191	23.68
36.3293	24.51
36.3395	23.45
36.3496	24.35
36.3598	23.96
36.3699	24.30
36.3801	24.60
36.3903	24.57
36.4004	23.77
36.4106	24.18
36.4208	23.77
36.4309	24.29
36.4411	24.41
36.4513	24.24
36.4614	24.46
36.4716	24.39
36.4818	24.29
36.4919	24.51
36.5021	24.59
36.5122	25.01
36.5224	23.95
36.5326	23.86
36.5427	23.90
36.5529	23.84
36.5631	24.38
36.5732	23.98
36.5834	24.25
36.5936	24.00
36.6037	25.08
36.6139	24.05
36.6241	23.90
36.6342	24.46
36.6444	24.45
36.6546	24.58
36.6647	24.55
36.6749	24.23
36.685	24.44
36.6952	24.56
36.7054	25.21
36.7155	25.04
36.7257	24.71
36.7359	24.77
36.746	24.40
36.7562	24.03
36.7664	24.87
36.7765	24.59
36.7867	24.40
36.7969	24.34
36.807	24.40
36.8172	24.57
36.8273	24.88
36.8375	24.73
36.8477	25.33
36.8578	23.82
36.868	24.05
36.8782	25.22
36.8883	25.07
36.8985	24.66
36.9087	24.69
36.9188	24.68
36.929	24.97
36.9392	25.19
36.9493	24.90
36.9595	24.62
36.9696	24.29
36.9798	24.33
36.99	24.72
37.0001	25.32
37.0103	24.34
37.0205	25.11
37.0306	25.49
37.0408	24.83
37.051	25.66
37.0611	25.84
37.0713	24.55
37.0815	24.51
37.0916	25.58
37.1018	25.32
37.112	25.11
37.1221	25.38
37.1323	25.21
37.1424	25.10
37.1526	25.75
37.1628	25.07
37.1729	24.76
37.1831	25.93
37.1933	25.69
37.2034	25.71
37.2136	25.05
37.2238	25.31
37.2339	25.52
37.2441	25.37
37.2543	25.67
37.2644	25.38
37.2746	25.93
37.2847	26.04
37.2949	25.95
37.3051	25.95
37.3152	26.11
37.3254	25.75
37.3356	25.91
37.3457	25.51
37.3559	26.51
37.3661	26.07
37.3762	26.16
37.3864	26.35
37.3966	26.30
37.4067	26.28
37.4169	25.99
37.4271	25.63
37.4372	26.26
37.4474	26.54
37.4575	26.91
37.4677	26.42
37.4779	26.37
37.488	26.41
37.4982	26.46
37.5084	26.73
37.5185	26.32
37.5287	26.30
37.5389	26.18
37.549	26.32
37.5592	25.92
37.5694	27.01
37.5795	26.30
37.5897	26.80
37.5998	26.29
37.61	26.12
37.6202	26.59
37.6303	26.61
37.6405	26.97
37.6507	26.60
37.6608	27.09
37.671	27.67
37.6812	26.93
37.6913	27.37
37.7015	27.01
37.7117	26.95
37.7218	27.04
37.732	27.82
37.7422	28.28
37.7523	27.04
37.7625	27.60
37.7726	25.90
37.7828	27.98
37.793	26.37
37.8031	27.73
37.8133	27.91
37.8235	27.93
37.8336	27.57
37.8438	28.11
37.854	28.04
37.8641	28.38
37.8743	27.59
37.8845	27.51
37.8946	27.63
37.9048	27.77
37.9149	27.90
37.9251	27.87
37.9353	27.35
37.9454	28.02
37.9556	28.07
37.9658	28.14
37.9759	28.41
37.9861	28.26
37.9963	28.57
38.0064	28.87
38.0166	28.09
38.0268	28.63
38.0369	29.29
38.0471	28.72
38.0573	29.47
38.0674	29.13
38.0776	28.74
38.0877	28.40
38.0979	29.51
38.1081	29.16
38.1182	28.74
38.1284	28.73
38.1386	28.95
38.1487	29.47
38.1589	29.60
38.1691	29.08
38.1792	29.85
38.1894	29.16
38.1996	29.82
38.2097	29.95
38.2199	29.47
38.23	29.63
38.2402	29.53
38.2504	29.94
38.2605	29.53
38.2707	30.15
38.2809	29.57
38.291	30.20
38.3012	29.79
38.3114	30.49
38.3215	30.01
38.3317	29.56
38.3419	31.04
38.352	30.00
38.3622	30.12
38.3724	30.37
38.3825	29.87
38.3927	30.82
38.4028	30.63
38.413	30.28
38.4232	30.96
38.4333	31.09
38.4435	30.82
38.4537	30.17
38.4638	30.58
38.474	31.07
38.4842	30.63
38.4943	30.63
38.5045	31.02
38.5147	30.38
38.5248	31.27
38.535	30.60
38.5451	31.38
38.5553	31.12
38.5655	30.46
38.5756	31.09
38.5858	31.67
38.596	30.74
38.6061	31.77
38.6163	31.65
38.6265	31.40
38.6366	31.30
38.6468	31.04
38.657	30.71
38.6671	30.84
38.6773	30.91
38.6875	31.02
38.6976	30.91
38.7078	31.51
38.7179	31.22
38.7281	30.71
38.7383	31.20
38.7484	31.11
38.7586	31.48
38.7688	31.12
38.7789	30.97
38.7891	30.27
38.7993	30.35
38.8094	31.68
38.8196	30.91
38.8298	29.72
38.8399	30.12
38.8501	30.80
38.8602	30.41
38.8704	31.38
38.8806	30.40
38.8907	30.56
38.9009	30.12
38.9111	29.70
38.9212	29.90
38.9314	29.35
38.9416	31.21
38.9517	30.30
38.9619	29.77
38.9721	30.65
38.9822	29.88
38.9924	30.57
39.0025	30.59
39.0127	29.77
39.0229	29.93
39.033	30.30
39.0432	29.46
39.0534	29.37
39.0635	29.00
39.0737	30.07
39.0839	29.88
39.094	30.27
39.1042	28.62
39.1144	29.01
39.1245	29.27
39.1347	29.23
39.1449	29.38
39.155	29.22
39.1652	28.74
39.1753	29.29
39.1855	29.13
39.1957	28.29
39.2058	29.46
39.216	28.52
39.2262	28.39
39.2363	28.82
39.2465	27.91
39.2567	28.90
39.2668	28.26
39.277	27.57
39.2872	28.29
39.2973	28.35
39.3075	28.82
39.3176	27.93
39.3278	27.79
39.338	28.40
39.3481	27.88
39.3583	27.87
39.3685	27.30
39.3786	27.80
39.3888	28.10
39.399	28.74
39.4091	27.82
39.4193	27.32
39.4295	27.61
39.4396	27.25
39.4498	27.07
39.46	28.13
39.4701	26.99
39.4803	27.63
39.4904	27.46
39.5006	26.68
39.5108	26.95
39.5209	27.53
39.5311	26.65
39.5413	27.21
39.5514	26.63
39.5616	27.09
39.5718	26.20
39.5819	27.84
39.5921	26.99
39.6023	26.22
39.6124	26.62
39.6226	26.10
39.6327	26.18
39.6429	26.84
39.6531	25.96
39.6632	26.29
39.6734	26.45
39.6836	26.58
39.6937	26.32
39.7039	26.46
39.7141	26.21
39.7242	27.13
39.7344	26.84
39.7446	26.79
39.7547	26.61
39.7649	25.21
39.7751	26.11
39.7852	26.35
39.7954	26.52
39.8055	25.81
39.8157	25.49
39.8259	25.67
39.836	25.67
39.8462	25.72
39.8564	25.37
39.8665	25.62
39.8767	25.89
39.8869	25.20
39.897	26.03
39.9072	25.68
39.9174	25.91
39.9275	24.83
39.9377	26.09
39.9478	26.45
39.958	25.63
39.9682	25.27
39.9783	25.92
39.9885	25.59
39.9987	25.32
40.0088	25.50
