5.0023	55.63
5.0125	56.17
5.0226	54.21
5.0328	54.58
5.043	52.69
5.0531	52.74
5.0633	51.40
5.0735	51.31
5.0836	51.13
5.0938	49.11
5.1039	48.62
5.1141	48.23
5.1243	47.29
5.1344	47.17
5.1446	45.05
5.1548	45.52
5.1649	45.45
5.1751	43.52
5.1853	43.40
5.1954	42.93
5.2056	42.69
5.2158	41.46
5.2259	41.78
5.2361	40.43
5.2462	39.73
5.2564	39.20
5.2666	38.69
5.2767	38.88
5.2869	38.84
5.2971	37.57
5.3072	37.85
5.3174	36.40
5.3276	36.02
5.3377	36.01
5.3479	35.73
5.3581	35.75
5.3682	35.08
5.3784	34.86
5.3886	33.70
5.3987	33.79
5.4089	33.19
5.419	33.76
5.4292	33.55
5.4394	33.10
5.4495	32.48
5.4597	31.57
5.4699	31.73
5.48	31.70
5.4902	31.28
5.5004	30.40
5.5105	30.36
5.5207	30.76
5.5309	30.26
5.541	29.52
5.5512	29.57
5.5613	28.77
5.5715	28.47
5.5817	28.37
5.5918	28.37
5.602	28.18
5.6122	27.20
5.6223	28.14
5.6325	27.88
5.6427	26.81
5.6528	27.01
5.663	27.27
5.6732	26.08
5.6833	26.23
5.6935	26.56
5.7036	25.26
5.7138	26.49
5.724	25.12
5.7341	26.34
5.7443	26.19
5.7545	26.23
5.7646	25.80
5.7748	25.62
5.785	25.27
5.7951	24.67
5.8053	24.95
5.8155	25.74
5.8256	24.76
5.8358	24.89
5.846	24.84
5.8561	25.02
5.8663	24.59
5.8764	24.48
5.8866	24.43
5.8968	24.41
5.9069	24.40
5.9171	24.48
5.9273	24.19
5.9374	23.90
5.9476	24.48
5.9578	23.57
5.9679	24.49
5.9781	23.49
5.9883	24.73
5.9984	23.57
6.0086	24.21
6.0187	22.81
6.0289	23.58
6.0391	24.31
6.0492	23.40
6.0594	22.86
6.0696	22.82
6.0797	23.32
6.0899	23.02
6.1001	23.08
6.1102	23.36
6.1204	23.54
6.1306	23.07
6.1407	23.61
6.1509	23.74
6.1611	23.59
6.1712	23.54
6.1814	23.24
6.1915	22.85
6.2017	23.46
6.2119	23.52
6.222	23.11
6.2322	23.62
6.2424	24.08
6.2525	22.77
6.2627	23.32
6.2729	23.79
6.283	23.43
6.2932	23.14
6.3034	22.57
6.3135	23.15
6.3237	22.66
6.3338	23.16
6.344	23.97
6.3542	23.28
6.3643	22.89
6.3745	23.23
6.3847	22.90
6.3948	22.51
6.405	23.77
6.4152	23.41
6.4253	23.03
6.4355	23.00
6.4457	23.35
6.4558	23.45
6.466	23.12
6.4762	22.98
6.4863	23.38
6.4965	23.34
6.5066	23.75
6.5168	23.45
6.527	23.17
6.5371	23.08
6.5473	22.80
6.5575	23.36
6.5676	21.76
6.5778	23.21
6.588	22.71
6.5981	23.18
6.6083	22.59
6.6185	23.41
6.6286	23.01
6.6388	23.46
6.6489	23.67
6.6591	23.79
6.6693	23.27
6.6794	23.60
6.6896	22.80
6.6998	23.59
6.7099	23.59
6.7201	22.59
6.7303	23.66
6.7404	22.66
6.7506	22.47
6.7608	23.46
6.7709	23.60
6.7811	23.57
6.7913	22.84
6.8014	23.08
6.8116	23.40
6.8217	23.15
6.8319	23.43
6.8421	23.67
6.8522	22.57
6.8624	24.00
6.8726	22.99
6.8827	23.12
6.8929	23.90
6.9031	22.65
6.9132	24.29
6.9234	24.07
6.9336	22.24
6.9437	23.03
6.9539	23.30
6.964	23.65
6.9742	23.94
6.9844	23.76
6.9945	23.49
7.0047	23.61
7.0149	23.13
7.025	23.76
7.0352	23.93
7.0454	24.56
7.0555	23.90
7.0657	23.99
7.0759	23.80
7.086	23.62
7.0962	24.05
7.1064	23.28
7.1165	23.46
7.1267	23.81
7.1368	23.83
7.147	23.75
7.1572	24.29
7.1673	23.67
7.1775	23.60
7.1877	23.73
7.1978	23.43
7.208	23.58
7.2182	24.10
7.2283	24.15
7.2385	23.29
7.2487	24.35
7.2588	23.85
7.269	23.58
7.2791	24.23
7.2893	23.85
7.2995	24.32
7.3096	24.64
7.3198	24.09
7.33	23.55
7.3401	24.98
7.3503	24.16
7.3605	24.53
7.3706	23.41
7.3808	24.31
7.391	24.02
7.4011	23.81
7.4113	24.54
7.4215	24.65
7.4316	24.94
7.4418	24.54
7.4519	24.26
7.4621	24.75
7.4723	24.30
7.4824	24.60
7.4926	24.66
7.5028	25.08
7.5129	24.99
7.5231	24.67
7.5333	24.32
7.5434	24.21
7.5536	24.99
7.5638	25.08
7.5739	24.48
7.5841	25.97
7.5942	24.87
7.6044	24.24
7.6146	25.04
7.6247	24.95
7.6349	24.25
7.6451	24.63
7.6552	24.43
7.6654	24.28
7.6756	25.02
7.6857	24.82
7.6959	24.46
7.7061	24.72
7.7162	25.55
7.7264	24.27
7.7365	25.60
7.7467	24.95
7.7569	25.21
7.767	25.04
7.7772	25.31
7.7874	24.64
7.7975	24.83
7.8077	25.73
7.8179	25.45
7.828	24.49
7.8382	25.24
7.8484	24.96
7.8585	25.26
7.8687	25.69
7.8789	25.13
7.889	24.63
7.8992	25.47
7.9093	25.97
7.9195	25.85
7.9297	25.84
7.9398	25.43
7.95	25.23
7.9602	26.21
7.9703	25.26
7.9805	25.14
7.9907	26.83
8.0008	26.15
8.011	25.86
8.0212	25.90
8.0313	26.79
8.0415	25.56
8.0516	25.83
8.0618	25.93
8.072	26.23
8.0821	27.07
8.0923	25.65
8.1025	25.71
8.1126	26.55
8.1228	25.62
8.133	26.27
8.1431	25.93
8.1533	26.11
8.1635	25.56
8.1736	25.95
8.1838	26.13
8.194	26.67
8.2041	26.24
8.2143	26.70
8.2244	27.26
8.2346	26.81
8.2448	26.13
8.2549	26.85
8.2651	26.51
8.2753	25.79
8.2854	26.55
8.2956	26.26
8.3058	26.87
8.3159	25.85
8.3261	26.99
8.3363	26.71
8.3464	26.52
8.3566	27.10
8.3667	26.33
8.3769	26.35
8.3871	26.68
8.3972	26.37
8.4074	26.47
8.4176	27.10
8.4277	26.38
8.4379	26.83
8.4481	28.05
8.4582	26.23
8.4684	27.22
8.4786	27.45
8.4887	26.52
8.4989	27.06
8.5091	27.37
8.5192	26.76
8.5294	27.67
8.5395	27.58
8.5497	26.64
8.5599	27.57
8.57	26.77
8.5802	27.02
8.5904	27.98
8.6005	27.67
8.6107	27.40
8.6209	27.88
8.631	27.31
8.6412	27.05
8.6514	27.22
8.6615	27.54
8.6717	27.60
8.6818	28.15
8.692	27.24
8.7022	27.63
8.7123	28.09
8.7225	27.59
8.7327	27.75
8.7428	27.10
8.753	27.43
8.7632	28.12
8.7733	27.91
8.7835	28.43
8.7937	27.65
8.8038	27.91
8.814	27.81
8.8242	27.69
8.8343	28.10
8.8445	29.26
8.8546	27.74
8.8648	28.12
8.875	28.46
8.8851	26.89
8.8953	28.28
8.9055	28.25
8.9156	27.30
8.9258	28.38
8.936	27.76
8.9461	27.63
8.9563	28.03
8.9665	28.03
8.9766	27.88
8.9868	28.47
8.9969	28.04
9.0071	28.46
9.0173	28.03
9.0274	28.57
9.0376	28.49
9.0478	29.70
9.0579	29.12
9.0681	27.35
9.0783	28.25
9.0884	28.95
9.0986	28.96
9.1088	28.86
9.1189	29.11
9.1291	28.80
9.1393	29.79
9.1494	28.92
9.1596	28.35
9.1697	29.52
9.1799	28.71
9.1901	28.02
9.2002	29.21
9.2104	28.91
9.2206	29.21
9.2307	30.04
9.2409	29.27
9.2511	28.39
9.2612	29.15
9.2714	29.73
9.2816	28.58
9.2917	28.97
9.3019	29.65
9.312	28.69
9.3222	29.46
9.3324	29.43
9.3425	29.21
9.3527	28.66
9.3629	29.82
9.373	29.71
9.3832	29.89
9.3934	29.50
9.4035	29.34
9.4137	30.27
9.4239	30.27
9.434	29.21
9.4442	29.13
9.4544	29.55
9.4645	29.80
9.4747	29.27
9.4848	29.71
9.495	29.03
9.5052	29.59
9.5153	29.71
9.5255	29.78
9.5357	29.70
9.5458	29.23
9.556	29.35
9.5662	30.04
9.5763	29.64
9.5865	29.22
9.5967	30.45
9.6068	29.98
9.617	29.45
9.6271	29.88
9.6373	30.20
9.6475	29.82
9.6576	29.82
9.6678	29.85
9.678	30.34
9.6881	30.43
9.6983	30.23
9.7085	30.19
9.7186	30.23
9.7288	30.12
9.739	30.22
9.7491	30.49
9.7593	30.60
9.7694	30.87
9.7796	30.07
9.7898	29.85
9.7999	31.41
9.8101	30.90
9.8203	30.88
9.8304	29.56
9.8406	30.20
9.8508	31.06
9.8609	31.07
9.8711	30.26
9.8813	31.27
9.8914	30.98
9.9016	30.09
9.9118	30.51
9.9219	29.86
9.9321	31.88
9.9422	30.56
9.9524	30.88
9.9626	30.95
9.9727	32.48
9.9829	31.09
9.9931	31.24
10.0032	30.30
10.0134	31.18
10.0236	30.96
10.0337	30.51
10.0439	30.86
10.0541	31.01
10.0642	31.24
10.0744	30.90
10.0845	30.98
10.0947	31.37
10.1049	31.26
10.115	31.40
10.1252	31.07
10.1354	30.98
10.1455	31.84
10.1557	31.38
10.1659	31.41
10.176	31.23
10.1862	31.77
10.1964	30.60
10.2065	31.76
10.2167	32.11
10.2269	31.41
10.237	31.84
10.2472	32.03
10.2573	31.69
10.2675	32.45
10.2777	32.20
10.2878	33.42
10.298	32.07
10.3082	31.26
10.3183	32.27
10.3285	32.58
10.3387	31.85
10.3488	32.09
10.359	31.80
10.3692	32.66
10.3793	32.16
10.3895	31.50
10.3996	31.54
10.4098	31.87
10.42	32.47
10.4301	31.87
10.4403	31.52
10.4505	33.21
10.4606	31.72
10.4708	31.80
10.481	33.03
10.4911	32.50
10.5013	32.94
10.5115	32.33
10.5216	32.26
10.5318	32.68
10.542	33.45
10.5521	31.93
10.5623	32.99
10.5724	32.41
10.5826	31.85
10.5928	32.97
10.6029	33.65
10.6131	31.95
10.6233	32.31
10.6334	32.45
10.6436	32.54
10.6538	33.07
10.6639	33.40
10.6741	32.73
10.6843	33.18
10.6944	32.52
10.7046	33.15
10.7147	33.05
10.7249	34.22
10.7351	33.19
10.7452	32.63
10.7554	31.93
10.7656	32.98
10.7757	32.42
10.7859	32.95
10.7961	32.87
10.8062	32.84
10.8164	32.63
10.8266	33.52
10.8367	34.20
10.8469	32.66
10.8571	33.16
10.8672	34.68
10.8774	34.35
10.8875	33.53
10.8977	33.81
10.9079	34.16
10.918	33.96
10.9282	33.48
10.9384	34.22
10.9485	33.95
10.9587	32.79
10.9689	33.62
10.979	33.59
10.9892	33.42
10.9994	33.84
11.0095	33.43
11.0197	33.37
11.0298	34.27
11.04	34.70
11.0502	34.40
11.0603	34.40
11.0705	34.01
11.0807	34.22
11.0908	33.93
11.101	34.30
11.1112	34.43
11.1213	33.84
11.1315	34.66
11.1417	33.99
11.1518	34.98
11.162	35.28
11.1722	34.41
11.1823	34.84
11.1925	33.68
11.2026	34.07
11.2128	34.71
11.223	35.80
11.2331	33.97
11.2433	34.85
11.2535	34.32
11.2636	34.38
11.2738	34.65
11.284	35.38
11.2941	34.45
11.3043	35.39
11.3145	35.63
11.3246	35.02
11.3348	35.45
11.3449	34.40
11.3551	34.65
11.3653	35.29
11.3754	35.36
11.3856	34.79
11.3958	34.82
11.4059	34.41
11.4161	34.35
11.4263	34.53
11.4364	34.49
11.4466	36.00
11.4568	34.71
11.4669	36.04
11.4771	35.67
11.4873	35.43
11.4974	35.53
11.5076	35.21
11.5177	36.40
11.5279	35.82
11.5381	35.29
11.5482	35.65
11.5584	35.62
11.5686	35.91
11.5787	36.46
11.5889	35.54
11.5991	36.45
11.6092	36.45
11.6194	36.38
11.6296	35.99
11.6397	35.63
11.6499	35.30
11.66	35.84
11.6702	36.04
11.6804	36.67
11.6905	36.29
11.7007	36.48
11.7109	37.13
11.721	35.45
11.7312	36.18
11.7414	36.68
11.7515	36.46
11.7617	36.26
11.7719	36.75
11.782	35.94
11.7922	36.94
11.8023	36.52
11.8125	37.03
11.8227	37.53
11.8328	36.90
11.843	36.87
11.8532	36.81
11.8633	37.05
11.8735	37.11
11.8837	37.54
11.8938	36.74
11.904	37.54
11.9142	37.84
11.9243	37.65
11.9345	36.70
11.9447	37.98
11.9548	37.68
11.965	37.37
11.9751	37.21
11.9853	37.27
11.9955	37.32
12.0056	37.75
12.0158	37.84
12.026	37.78
12.0361	37.27
12.0463	38.41
12.0565	38.57
12.0666	38.48
12.0768	37.16
12.087	38.32
12.0971	38.20
12.1073	38.04
12.1174	38.59
12.1276	37.98
12.1378	38.06
12.1479	37.56
12.1581	38.97
12.1683	39.48
12.1784	38.05
12.1886	39.35
12.1988	38.36
12.2089	38.23
12.2191	38.77
12.2293	39.25
12.2394	39.08
12.2496	38.66
12.2598	38.26
12.2699	38.51
12.2801	39.24
12.2902	39.34
12.3004	39.60
12.3106	39.37
12.3207	39.55
12.3309	38.96
12.3411	39.20
12.3512	39.80
12.3614	39.13
12.3716	39.04
12.3817	39.99
12.3919	40.00
12.4021	39.43
12.4122	39.07
12.4224	39.57
12.4325	39.89
12.4427	39.43
12.4529	39.89
12.463	40.08
12.4732	39.71
12.4834	40.43
12.4935	40.71
12.5037	40.70
12.5139	40.75
12.524	39.51
12.5342	40.62
12.5444	39.95
12.5545	39.97
12.5647	40.98
12.5749	41.31
12.585	41.26
12.5952	40.17
12.6053	42.05
12.6155	40.71
12.6257	41.46
12.6358	42.36
12.646	40.99
12.6562	40.71
12.6663	42.66
12.6765	40.71
12.6867	40.71
12.6968	41.24
12.707	41.26
12.7172	41.18
12.7273	42.27
12.7375	42.38
12.7476	41.92
12.7578	41.09
12.768	41.40
12.7781	41.97
12.7883	42.95
12.7985	41.59
12.8086	42.45
12.8188	41.79
12.829	42.61
12.8391	41.70
12.8493	43.93
12.8595	42.51
12.8696	42.35
12.8798	41.95
12.89	42.12
12.9001	42.84
12.9103	42.68
12.9204	43.13
12.9306	42.55
12.9408	42.98
12.9509	43.46
12.9611	43.18
12.9713	42.17
12.9814	43.04
12.9916	43.20
13.0018	43.87
13.0119	43.37
13.0221	43.34
13.0323	43.59
13.0424	44.07
13.0526	43.79
13.0627	42.47
13.0729	43.96
13.0831	43.70
13.0932	45.29
13.1034	44.37
13.1136	43.73
13.1237	44.18
13.1339	44.73
13.1441	44.70
13.1542	43.84
13.1644	44.20
13.1746	44.19
13.1847	45.10
13.1949	43.71
13.2051	44.72
13.2152	45.20
13.2254	44.53
13.2355	44.99
13.2457	45.13
13.2559	44.75
13.266	45.15
13.2762	45.51
13.2864	45.77
13.2965	45.68
13.3067	45.84
13.3169	46.29
13.327	46.68
13.3372	46.00
13.3474	45.85
13.3575	45.33
13.3677	46.33
13.3778	45.94
13.388	46.57
13.3982	45.87
13.4083	45.98
13.4185	46.38
13.4287	46.85
13.4388	46.31
13.449	46.59
13.4592	46.90
13.4693	46.11
13.4795	47.08
13.4897	45.95
13.4998	47.89
13.51	47.34
13.5201	47.52
13.5303	47.35
13.5405	47.30
13.5506	47.23
13.5608	47.77
13.571	48.13
13.5811	47.51
13.5913	48.71
13.6015	48.30
13.6116	48.66
13.6218	48.67
13.632	46.85
13.6421	48.56
13.6523	47.85
13.6625	48.54
13.6726	48.80
13.6828	47.99
13.6929	47.68
13.7031	49.54
13.7133	48.91
13.7234	49.24
13.7336	50.29
13.7438	49.17
13.7539	48.62
13.7641	49.51
13.7743	49.83
13.7844	49.66
13.7946	49.45
13.8048	50.54
13.8149	50.88
13.8251	49.67
13.8352	50.24
13.8454	50.68
13.8556	50.20
13.8657	50.34
13.8759	49.40
13.8861	50.62
13.8962	51.24
13.9064	51.29
13.9166	50.58
13.9267	50.08
13.9369	50.97
13.9471	50.73
13.9572	50.35
13.9674	50.63
13.9776	51.73
13.9877	50.75
13.9979	51.26
14.008	52.63
14.0182	51.60
14.0284	52.32
14.0385	52.56
14.0487	51.26
14.0589	51.62
14.069	52.60
14.0792	53.24
14.0894	52.36
14.0995	52.14
14.1097	52.01
14.1199	52.11
14.13	53.02
14.1402	52.55
14.1503	52.77
14.1605	52.35
14.1707	52.81
14.1808	53.21
14.191	52.34
14.2012	54.85
14.2113	52.28
14.2215	54.05
14.2317	54.12
14.2418	53.37
14.252	53.88
14.2622	53.74
14.2723	54.45
14.2825	54.13
14.2927	54.31
14.3028	55.17
14.313	54.86
14.3231	54.65
14.3333	53.63
14.3435	56.14
14.3536	56.00
14.3638	56.11
14.374	55.82
14.3841	54.59
14.3943	54.22
14.4045	54.29
14.4146	56.26
14.4248	56.16
14.435	56.24
14.4451	55.78
14.4553	55.74
14.4654	56.82
14.4756	55.93
14.4858	56.41
14.4959	57.90
14.5061	55.96
14.5163	56.90
14.5264	57.54
14.5366	57.54
14.5468	57.61
14.5569	58.23
14.5671	58.58
14.5773	57.11
14.5874	58.69
14.5976	58.09
14.6078	58.88
14.6179	59.46
14.6281	58.85
14.6382	58.43
14.6484	57.95
14.6586	59.01
14.6687	59.36
14.6789	59.74
14.6891	59.07
14.6992	58.23
14.7094	59.30
14.7196	58.48
14.7297	60.02
14.7399	60.84
14.7501	60.59
14.7602	60.44
14.7704	60.13
14.7805	59.88
14.7907	60.20
14.8009	61.78
14.811	60.79
14.8212	60.95
14.8314	60.48
14.8415	60.58
14.8517	60.60
14.8619	61.09
14.872	60.47
14.8822	61.27
14.8924	60.96
14.9025	61.79
14.9127	61.43
14.9229	61.11
14.933	61.51
14.9432	61.42
14.9533	61.66
14.9635	61.81
14.9737	62.21
14.9838	62.71
14.994	62.85
15.0042	62.43
15.0143	62.80
15.0245	63.98
15.0347	62.96
15.0448	64.17
15.055	63.03
15.0652	63.80
15.0753	64.52
15.0855	64.01
15.0956	65.01
15.1058	64.61
15.116	63.88
15.1261	64.37
15.1363	66.16
15.1465	65.22
15.1566	63.55
15.1668	65.38
15.177	66.36
15.1871	65.08
15.1973	65.68
15.2075	66.13
15.2176	65.96
15.2278	66.70
15.238	65.23
15.2481	66.38
15.2583	67.69
15.2684	66.73
15.2786	67.76
15.2888	67.19
15.2989	67.63
15.3091	66.87
15.3193	67.09
15.3294	67.38
15.3396	67.03
15.3498	69.43
15.3599	68.61
15.3701	68.65
15.3803	68.52
15.3904	67.15
15.4006	66.43
15.4107	68.05
15.4209	68.46
15.4311	68.41
15.4412	70.65
15.4514	69.00
15.4616	70.01
15.4717	69.57
15.4819	69.01
15.4921	70.50
15.5022	70.59
15.5124	71.09
15.5226	70.41
15.5327	70.74
15.5429	71.45
15.553	71.26
15.5632	70.46
15.5734	71.68
15.5835	70.59
15.5937	71.26
15.6039	71.16
15.614	72.21
15.6242	72.77
15.6344	73.40
15.6445	71.93
15.6547	72.17
15.6649	72.65
15.675	72.80
15.6852	73.05
15.6954	71.45
15.7055	73.03
15.7157	72.89
15.7258	73.82
15.736	73.26
15.7462	74.10
15.7563	73.35
15.7665	75.60
15.7767	74.71
15.7868	74.58
15.797	76.19
15.8072	75.95
15.8173	74.04
15.8275	75.05
15.8377	75.59
15.8478	75.24
15.858	76.07
15.8681	75.70
15.8783	75.21
15.8885	77.51
15.8986	76.21
15.9088	77.29
15.919	75.83
15.9291	76.96
15.9393	78.08
15.9495	77.76
15.9596	77.70
15.9698	77.01
15.98	77.34
15.9901	78.38
16.0003	79.79
16.0105	79.03
16.0206	79.13
16.0308	78.26
16.0409	79.24
16.0511	79.33
16.0613	78.14
16.0714	79.73
16.0816	79.87
16.0918	78.61
16.1019	80.80
16.1121	80.43
16.1223	79.72
16.1324	80.78
16.1426	81.38
16.1528	81.55
16.1629	81.76
16.1731	81.66
16.1832	82.01
16.1934	81.99
16.2036	82.70
16.2137	81.04
16.2239	82.82
16.2341	83.29
16.2442	82.68
16.2544	83.46
16.2646	83.44
16.2747	83.86
16.2849	83.70
16.2951	83.26
16.3052	84.29
16.3154	84.04
16.3256	85.12
16.3357	84.36
16.3459	86.23
16.356	85.29
16.3662	83.12
16.3764	85.86
16.3865	85.56
16.3967	85.91
16.4069	85.20
16.417	85.95
16.4272	86.38
16.4374	86.96
16.4475	87.21
16.4577	87.48
16.4679	86.59
16.478	86.52
16.4882	87.84
16.4983	87.48
16.5085	88.54
16.5187	87.35
16.5288	87.53
16.539	89.01
16.5492	88.52
16.5593	89.88
16.5695	90.22
16.5797	91.15
16.5898	90.62
16.6	91.01
16.6102	92.40
16.6203	90.99
16.6305	90.09
16.6407	90.68
16.6508	91.25
16.661	92.75
16.6711	91.15
16.6813	91.62
16.6915	93.71
16.7016	92.62
16.7118	93.20
16.722	93.34
16.7321	94.07
16.7423	94.28
16.7525	92.76
16.7626	94.75
16.7728	93.50
16.783	94.77
16.7931	93.93
16.8033	94.34
16.8134	94.35
16.8236	96.84
16.8338	95.77
16.8439	95.35
16.8541	96.98
16.8643	95.86
16.8744	97.10
16.8846	97.57
16.8948	95.85
16.9049	96.07
16.9151	97.29
16.9253	97.98
16.9354	97.15
16.9456	97.85
16.9558	97.55
16.9659	96.85
16.9761	97.26
16.9862	97.19
16.9964	98.54
17.0066	98.12
17.0167	98.42
17.0269	99.04
17.0371	100.82
17.0472	100.29
17.0574	99.53
17.0676	98.59
17.0777	100.50
17.0879	100.64
17.0981	100.33
17.1082	99.59
17.1184	100.37
17.1285	101.55
17.1387	100.36
17.1489	101.32
17.159	100.76
17.1692	100.48
17.1794	100.24
17.1895	100.71
17.1997	102.67
17.2099	103.61
17.22	102.20
17.2302	102.60
17.2404	104.37
17.2505	103.02
17.2607	103.09
17.2709	103.30
17.281	104.91
17.2912	104.05
17.3013	103.90
17.3115	102.95
17.3217	104.70
17.3318	102.85
17.342	104.42
17.3522	104.68
17.3623	104.52
17.3725	106.54
17.3827	105.96
17.3928	107.09
17.403	105.70
17.4132	107.05
17.4233	107.30
17.4335	106.70
17.4436	109.44
17.4538	109.12
17.464	106.76
17.4741	108.54
17.4843	106.90
17.4945	107.70
17.5046	108.23
17.5148	109.51
17.525	107.88
17.5351	109.35
17.5453	110.98
17.5555	110.04
17.5656	111.23
17.5758	109.99
17.5859	111.01
17.5961	113.66
17.6063	113.52
17.6164	113.48
17.6266	112.98
17.6368	115.17
17.6469	114.68
17.6571	114.05
17.6673	117.10
17.6774	115.32
17.6876	115.17
17.6978	115.43
17.7079	115.30
17.7181	117.90
17.7283	119.26
17.7384	116.99
17.7486	118.50
17.7587	119.63
17.7689	118.37
17.7791	120.53
17.7892	121.08
17.7994	121.98
17.8096	122.57
17.8197	121.74
17.8299	122.34
17.8401	122.20
17.8502	124.47
17.8604	124.63
17.8706	124.36
17.8807	126.15
17.8909	128.13
17.901	127.12
17.9112	130.35
17.9214	128.79
17.9315	129.34
17.9417	132.56
17.9519	131.74
17.962	133.54
17.9722	134.09
17.9824	133.13
17.9925	135.71
18.0027	135.45
18.0129	137.84
18.023	139.26
18.0332	139.01
18.0434	141.03
18.0535	140.98
18.0637	144.60
18.0738	143.99
18.084	145.71
18.0942	148.61
18.1043	148.12
18.1145	148.65
18.1247	153.98
18.1348	153.50
18.145	153.82
18.1552	156.37
18.1653	158.44
18.1755	159.77
18.1857	161.60
18.1958	163.31
18.206	164.35
18.2161	168.22
18.2263	170.77
18.2365	171.51
18.2466	176.00
18.2568	177.58
18.267	179.43
18.2771	185.62
18.2873	184.68
18.2975	185.65
18.3076	190.01
18.3178	193.24
18.328	195.41
18.3381	200.35
18.3483	201.70
18.3585	200.68
18.3686	206.38
18.3788	209.71
18.3889	210.30
18.3991	218.37
18.4093	218.55
18.4194	220.78
18.4296	223.44
18.4398	228.37
18.4499	229.77
18.4601	233.52
18.4703	238.44
18.4804	238.58
18.4906	243.30
18.5008	246.52
18.5109	244.59
18.5211	252.73
18.5312	254.03
18.5414	254.60
18.5516	257.43
18.5617	259.56
18.5719	262.61
18.5821	265.68
18.5922	268.05
18.6024	266.70
18.6126	265.85
18.6227	268.16
18.6329	267.54
18.6431	271.18
18.6532	271.67
18.6634	270.21
18.6736	270.65
18.6837	271.26
18.6939	266.80
18.704	269.89
18.7142	267.84
18.7244	262.98
18.7345	262.43
18.7447	265.32
18.7549	258.50
18.765	259.65
18.7752	256.59
18.7854	252.16
18.7955	248.96
18.8057	249.96
18.8159	243.51
18.826	244.43
18.8362	241.05
18.8463	235.68
18.8565	231.62
18.8667	231.09
18.8768	225.39
18.887	225.60
18.8972	221.16
18.9073	215.63
18.9175	214.12
18.9277	211.63
18.9378	207.20
18.948	204.41
18.9582	203.72
18.9683	199.05
18.9785	196.55
18.9887	194.23
18.9988	189.31
19.009	187.78
19.0191	186.51
19.0293	182.70
19.0395	181.88
19.0496	177.60
19.0598	175.68
19.07	174.47
19.0801	171.10
19.0903	169.73
19.1005	168.64
19.1106	166.80
19.1208	163.74
19.131	163.82
19.1411	159.90
19.1513	157.66
19.1614	157.12
19.1716	155.92
19.1818	153.30
19.1919	152.29
19.2021	151.53
19.2123	149.66
19.2224	148.65
19.2326	147.62
19.2428	146.07
19.2529	147.43
19.2631	144.32
19.2733	143.03
19.2834	143.76
19.2936	141.39
19.3038	140.99
19.3139	139.79
19.3241	140.45
19.3342	138.76
19.3444	137.60
19.3546	136.41
19.3647	135.63
19.3749	135.32
19.3851	133.38
19.3952	133.02
19.4054	133.88
19.4156	132.38
19.4257	133.18
19.4359	130.28
19.4461	130.94
19.4562	129.48
19.4664	130.41
19.4765	131.00
19.4867	128.51
19.4969	129.25
19.507	126.67
19.5172	128.85
19.5274	128.36
19.5375	128.53
19.5477	126.00
19.5579	126.37
19.568	128.04
19.5782	124.53
19.5884	126.51
19.5985	125.24
19.6087	125.53
19.6188	126.55
19.629	123.97
19.6392	123.20
19.6493	124.82
19.6595	124.83
19.6697	123.90
19.6798	123.76
19.69	123.83
19.7002	123.16
19.7103	124.54
19.7205	124.82
19.7307	124.44
19.7408	125.30
19.751	123.09
19.7612	125.48
19.7713	124.16
19.7815	124.13
19.7916	123.79
19.8018	123.10
19.812	122.45
19.8221	124.66
19.8323	124.04
19.8425	123.92
19.8526	122.24
19.8628	123.01
19.873	124.43
19.8831	122.74
19.8933	123.96
19.9035	124.95
19.9136	123.81
19.9238	125.77
19.9339	122.51
19.9441	123.89
19.9543	124.81
19.9644	124.94
19.9746	124.29
19.9848	125.91
19.9949	126.75
20.0051	125.18
20.0153	125.58
20.0254	127.77
20.0356	126.32
20.0458	126.54
20.0559	127.04
20.0661	126.91
20.0763	128.50
20.0864	127.80
20.0966	127.50
20.1067	129.29
20.1169	128.94
20.1271	129.17
20.1372	129.48
20.1474	130.38
20.1576	130.72
20.1677	130.59
20.1779	132.72
20.1881	129.63
20.1982	132.54
20.2084	132.07
20.2186	133.83
20.2287	133.85
20.2389	134.19
20.249	133.84
20.2592	138.24
20.2694	136.61
20.2795	134.71
20.2897	136.03
20.2999	135.09
20.31	137.05
20.3202	136.20
20.3304	139.86
20.3405	138.41
20.3507	138.82
20.3609	139.71
20.371	138.54
20.3812	140.62
20.3914	139.80
20.4015	140.80
20.4117	141.60
20.4218	143.42
20.432	143.55
20.4422	142.66
20.4523	142.68
20.4625	143.33
20.4727	145.75
20.4828	143.25
20.493	143.80
20.5032	145.04
20.5133	145.00
20.5235	144.68
20.5337	147.15
20.5438	146.25
20.554	145.54
20.5641	147.30
20.5743	147.84
20.5845	144.85
20.5946	147.12
20.6048	146.50
20.615	145.38
20.6251	147.12
20.6353	145.14
20.6455	144.73
20.6556	143.44
20.6658	145.73
20.676	144.09
20.6861	144.78
20.6963	142.38
20.7065	143.41
20.7166	143.42
20.7268	143.41
20.7369	141.23
20.7471	141.75
20.7573	140.43
20.7674	139.19
20.7776	141.88
20.7878	142.09
20.7979	140.60
20.8081	139.95
20.8183	137.34
20.8284	137.03
20.8386	138.09
20.8488	135.20
20.8589	131.76
20.8691	134.36
20.8792	135.19
20.8894	131.15
20.8996	132.52
20.9097	133.12
20.9199	131.42
20.9301	129.85
20.9402	129.54
20.9504	127.32
20.9606	128.92
20.9707	128.43
20.9809	126.91
20.9911	126.29
21.0012	126.30
21.0114	126.02
21.0216	122.81
21.0317	124.94
21.0419	121.51
21.052	122.02
21.0622	122.94
21.0724	121.19
21.0825	121.65
21.0927	120.32
21.1029	118.76
21.113	119.59
21.1232	119.29
21.1334	118.86
21.1435	117.24
21.1537	117.10
21.1639	116.04
21.174	116.41
21.1842	116.34
21.1943	113.48
21.2045	115.24
21.2147	114.20
21.2248	113.36
21.235	113.85
21.2452	113.46
21.2553	112.83
21.2655	113.29
21.2757	113.52
21.2858	112.94
21.296	113.37
21.3062	112.55
21.3163	110.54
21.3265	112.22
21.3366	112.12
21.3468	110.85
21.357	112.18
21.3671	111.75
21.3773	111.04
21.3875	110.82
21.3976	111.99
21.4078	111.27
21.418	110.56
21.4281	110.93
21.4383	110.38
21.4485	111.43
21.4586	111.69
21.4688	110.30
21.479	111.06
21.4891	110.78
21.4993	111.59
21.5094	111.85
21.5196	111.46
21.5298	110.23
21.5399	111.90
21.5501	111.23
21.5603	109.86
21.5704	111.73
21.5806	111.45
21.5908	113.57
21.6009	111.71
21.6111	111.30
21.6213	110.90
21.6314	113.15
21.6416	112.75
21.6517	112.21
21.6619	113.57
21.6721	114.41
21.6822	112.80
21.6924	115.57
21.7026	115.36
21.7127	115.96
21.7229	116.47
21.7331	117.31
21.7432	118.42
21.7534	118.38
21.7636	120.40
21.7737	117.84
21.7839	119.30
21.7941	121.61
21.8042	121.24
21.8144	121.17
21.8245	124.12
21.8347	123.93
21.8449	125.36
21.855	127.29
21.8652	125.48
21.8754	127.44
21.8855	127.61
21.8957	127.20
21.9059	130.04
21.916	129.68
21.9262	129.62
21.9364	132.59
21.9465	132.82
21.9567	134.18
21.9668	133.34
21.977	134.38
21.9872	133.90
21.9973	138.08
22.0075	138.51
22.0177	137.91
22.0278	138.70
22.038	141.47
22.0482	140.04
22.0583	143.45
22.0685	142.27
22.0787	143.08
22.0888	146.47
22.099	147.91
22.1092	146.40
22.1193	147.10
22.1295	151.96
22.1396	150.38
22.1498	151.18
22.16	151.98
22.1701	152.61
22.1803	154.63
22.1905	155.58
22.2006	154.99
22.2108	158.26
22.221	159.65
22.2311	159.18
22.2413	161.51
22.2515	163.16
22.2616	161.81
22.2718	162.64
22.2819	166.21
22.2921	164.87
22.3023	166.30
22.3124	166.76
22.3226	166.65
22.3328	168.03
22.3429	168.20
22.3531	168.86
22.3633	169.62
22.3734	169.86
22.3836	168.88
22.3938	172.11
22.4039	174.02
22.4141	169.93
22.4243	171.64
22.4344	172.23
22.4446	169.90
22.4547	173.61
22.4649	172.62
22.4751	172.00
22.4852	174.01
22.4954	171.18
22.5056	171.21
22.5157	173.01
22.5259	171.07
22.5361	168.89
22.5462	168.43
22.5564	169.33
22.5666	166.63
22.5767	170.66
22.5869	168.96
22.597	165.23
22.6072	167.45
22.6174	167.59
22.6275	165.38
22.6377	164.11
22.6479	163.63
22.658	161.20
22.6682	161.73
22.6784	161.50
22.6885	157.89
22.6987	158.62
22.7089	158.82
22.719	156.11
22.7292	157.68
22.7394	156.70
22.7495	153.60
22.7597	152.95
22.7698	153.91
22.78	149.80
22.7902	149.95
22.8003	148.97
22.8105	145.29
22.8207	145.97
22.8308	145.57
22.841	143.01
22.8512	143.55
22.8613	142.37
22.8715	141.19
22.8817	139.43
22.8918	137.59
22.902	138.73
22.9121	137.73
22.9223	135.78
22.9325	133.97
22.9426	134.29
22.9528	131.35
22.963	130.12
22.9731	130.80
22.9833	128.60
22.9935	127.94
23.0036	127.10
23.0138	126.48
23.024	125.29
23.0341	124.60
23.0443	122.50
23.0545	119.92
23.0646	120.12
23.0748	119.63
23.0849	118.65
23.0951	117.46
23.1053	117.22
23.1154	114.46
23.1256	114.59
23.1358	114.62
23.1459	114.48
23.1561	112.09
23.1663	109.69
23.1764	109.95
23.1866	110.48
23.1968	109.51
23.2069	108.01
23.2171	106.46
23.2272	106.02
23.2374	107.21
23.2476	104.47
23.2577	103.54
23.2679	103.45
23.2781	103.02
23.2882	100.80
23.2984	101.39
23.3086	100.63
23.3187	100.14
23.3289	98.19
23.3391	98.35
23.3492	98.02
23.3594	95.74
23.3695	96.15
23.3797	96.04
23.3899	96.07
23.4	94.51
23.4102	94.71
23.4204	94.57
23.4305	91.66
23.4407	92.02
23.4509	90.82
23.461	91.66
23.4712	90.41
23.4814	89.24
23.4915	89.85
23.5017	87.21
23.5119	88.02
23.522	86.69
23.5322	87.45
23.5423	86.37
23.5525	85.87
23.5627	85.26
23.5728	84.42
23.583	84.45
23.5932	82.83
23.6033	83.04
23.6135	82.87
23.6237	81.82
23.6338	80.05
23.644	81.93
23.6542	82.15
23.6643	80.84
23.6745	81.24
23.6846	79.62
23.6948	79.29
23.705	79.98
23.7151	79.26
23.7253	76.90
23.7355	77.18
23.7456	78.12
23.7558	78.26
23.766	76.94
23.7761	76.34
23.7863	75.54
23.7965	76.21
23.8066	75.79
23.8168	75.74
23.827	74.91
23.8371	75.88
23.8473	73.95
23.8574	74.58
23.8676	74.21
23.8778	73.52
23.8879	71.74
23.8981	71.44
23.9083	72.74
23.9184	71.40
23.9286	70.98
23.9388	70.80
23.9489	72.24
23.9591	70.94
23.9693	69.98
23.9794	69.79
23.9896	70.20
23.9997	69.15
24.0099	69.99
24.0201	70.80
24.0302	69.43
24.0404	69.14
24.0506	68.20
24.0607	68.05
24.0709	68.60
24.0811	66.15
24.0912	67.62
24.1014	66.76
24.1116	66.20
24.1217	66.90
24.1319	67.45
24.1421	65.83
24.1522	65.87
24.1624	67.14
24.1725	66.78
24.1827	66.11
24.1929	65.52
24.203	67.15
24.2132	63.96
24.2234	65.73
24.2335	64.98
24.2437	64.45
24.2539	64.39
24.264	64.11
24.2742	65.15
24.2844	63.95
24.2945	64.26
24.3047	64.81
24.3148	63.60
24.325	64.03
24.3352	64.35
24.3453	62.93
24.3555	62.45
24.3657	62.78
24.3758	63.60
24.386	62.27
24.3962	63.53
24.4063	62.16
24.4165	60.45
24.4267	62.21
24.4368	61.48
24.447	61.30
24.4572	60.95
24.4673	62.72
24.4775	61.43
24.4876	61.66
24.4978	61.46
24.508	60.52
24.5181	61.95
24.5283	60.62
24.5385	61.73
24.5486	61.73
24.5588	59.21
24.569	60.84
24.5791	59.59
24.5893	61.01
24.5995	59.36
24.6096	59.05
24.6198	59.65
24.6299	59.40
24.6401	59.65
24.6503	59.99
24.6604	59.59
24.6706	60.93
24.6808	58.23
24.6909	60.37
24.7011	59.36
24.7113	59.11
24.7214	58.64
24.7316	59.06
24.7418	58.45
24.7519	58.86
24.7621	58.68
24.7723	58.21
24.7824	59.16
24.7926	58.52
24.8027	57.77
24.8129	57.48
24.8231	57.75
24.8332	58.04
24.8434	58.15
24.8536	58.15
24.8637	57.79
24.8739	56.12
24.8841	56.86
24.8942	56.88
24.9044	57.25
24.9146	57.19
24.9247	57.65
24.9349	56.49
24.945	56.56
24.9552	55.91
24.9654	56.34
24.9755	57.36
24.9857	56.88
24.9959	56.47
25.006	56.43
25.0162	56.20
25.0264	56.20
25.0365	56.65
25.0467	56.07
25.0569	55.95
25.067	56.31
25.0772	56.28
25.0874	55.72
25.0975	55.04
25.1077	56.15
25.1178	56.48
25.128	55.87
25.1382	56.20
25.1483	55.07
25.1585	55.58
25.1687	55.45
25.1788	56.90
25.189	55.83
25.1992	54.79
25.2093	56.26
25.2195	55.31
25.2297	55.84
25.2398	55.93
25.25	55.07
25.2601	54.36
25.2703	54.91
25.2805	56.74
25.2906	56.01
25.3008	54.94
25.311	55.10
25.3211	54.20
25.3313	54.91
25.3415	54.59
25.3516	54.63
25.3618	54.40
25.372	55.01
25.3821	55.40
25.3923	54.77
25.4024	54.80
25.4126	53.76
25.4228	54.84
25.4329	54.29
25.4431	54.25
25.4533	54.85
25.4634	53.47
25.4736	54.55
25.4838	53.92
25.4939	53.07
25.5041	54.52
25.5143	54.34
25.5244	53.38
25.5346	53.68
25.5448	54.66
25.5549	53.21
25.5651	54.30
25.5752	53.76
25.5854	53.77
25.5956	54.49
25.6057	54.00
25.6159	53.94
25.6261	52.89
25.6362	53.61
25.6464	53.09
25.6566	54.09
25.6667	53.83
25.6769	53.89
25.6871	53.77
25.6972	53.50
25.7074	53.81
25.7175	53.00
25.7277	53.88
25.7379	52.58
25.748	53.55
25.7582	53.94
25.7684	52.43
25.7785	51.65
25.7887	53.70
25.7989	53.49
25.809	51.84
25.8192	53.31
25.8294	51.48
25.8395	52.49
25.8497	52.61
25.8599	51.21
25.87	51.65
25.8802	52.62
25.8903	51.26
25.9005	52.00
25.9107	51.96
25.9208	52.49
25.931	52.54
25.9412	51.37
25.9513	50.91
25.9615	52.03
25.9717	51.80
25.9818	51.41
25.992	52.24
26.0022	51.87
26.0123	50.51
26.0225	52.17
26.0326	50.95
26.0428	52.68
26.053	51.42
26.0631	50.27
26.0733	51.01
26.0835	50.60
26.0936	51.49
26.1038	50.93
26.114	50.68
26.1241	49.74
26.1343	49.97
26.1445	50.47
26.1546	50.85
26.1648	50.15
26.175	49.45
26.1851	50.62
26.1953	49.71
26.2054	50.05
26.2156	49.93
26.2258	49.68
26.2359	49.92
26.2461	51.69
26.2563	50.66
26.2664	49.68
26.2766	50.07
26.2868	48.71
26.2969	49.61
26.3071	49.55
26.3173	50.47
26.3274	49.99
26.3376	50.49
26.3477	49.80
26.3579	50.13
26.3681	49.00
26.3782	48.93
26.3884	49.40
26.3986	49.02
26.4087	49.69
26.4189	48.56
26.4291	49.09
26.4392	48.27
26.4494	48.56
26.4596	49.37
26.4697	48.74
26.4799	48.57
26.4901	49.13
26.5002	48.19
26.5104	48.59
26.5205	49.09
26.5307	48.54
26.5409	48.34
26.551	48.18
26.5612	48.32
26.5714	47.99
26.5815	49.43
26.5917	48.20
26.6019	47.58
26.612	47.62
26.6222	48.76
26.6324	48.13
26.6425	47.66
26.6527	48.79
26.6628	48.98
26.673	48.07
26.6832	48.55
26.6933	47.77
26.7035	47.71
26.7137	47.04
26.7238	47.13
26.734	47.29
26.7442	47.34
26.7543	48.57
26.7645	47.95
26.7747	47.55
26.7848	47.64
26.795	48.67
26.8052	46.84
26.8153	47.01
26.8255	47.93
26.8356	47.17
26.8458	47.62
26.856	48.26
26.8661	47.60
26.8763	46.52
26.8865	47.90
26.8966	47.63
26.9068	47.99
26.917	47.28
26.9271	46.50
26.9373	47.39
26.9475	47.55
26.9576	46.76
26.9678	47.16
26.9779	46.81
26.9881	46.71
26.9983	47.16
27.0084	47.84
27.0186	46.12
27.0288	47.60
27.0389	46.93
27.0491	46.57
27.0593	47.55
27.0694	45.88
27.0796	46.99
27.0898	46.54
27.0999	47.03
27.1101	47.26
27.1202	47.68
27.1304	47.68
27.1406	46.82
27.1507	46.85
27.1609	46.54
27.1711	46.74
27.1812	46.89
27.1914	47.23
27.2016	47.25
27.2117	46.39
27.2219	47.63
27.2321	46.49
27.2422	46.18
27.2524	46.37
27.2626	46.76
27.2727	47.52
27.2829	47.15
27.293	47.07
27.3032	46.75
27.3134	47.84
27.3235	48.22
27.3337	46.52
27.3439	47.57
27.354	47.87
27.3642	46.61
27.3744	46.66
27.3845	47.25
27.3947	46.29
27.4049	47.59
27.415	47.36
27.4252	48.40
27.4353	47.31
27.4455	47.98
27.4557	47.49
27.4658	48.11
27.476	47.09
27.4862	46.71
27.4963	47.51
27.5065	47.45
27.5167	47.37
27.5268	47.82
27.537	48.04
27.5472	47.84
27.5573	48.66
27.5675	47.14
27.5777	48.82
27.5878	48.24
27.598	48.11
27.6081	48.63
27.6183	47.79
27.6285	48.04
27.6386	48.54
27.6488	49.32
27.659	49.98
27.6691	49.84
27.6793	49.34
27.6895	49.76
27.6996	50.12
27.7098	49.48
27.72	50.37
27.7301	49.99
27.7403	50.93
27.7504	50.15
27.7606	50.04
27.7708	50.92
27.7809	51.23
27.7911	51.45
27.8013	51.12
27.8114	50.62
27.8216	51.36
27.8318	52.20
27.8419	51.23
27.8521	53.15
27.8623	53.09
27.8724	53.03
27.8826	53.45
27.8928	53.34
27.9029	53.71
27.9131	54.01
27.9232	55.01
27.9334	55.38
27.9436	54.34
27.9537	54.91
27.9639	56.20
27.9741	56.72
27.9842	54.95
27.9944	56.51
28.0046	57.04
28.0147	56.95
28.0249	57.04
28.0351	57.86
28.0452	59.20
28.0554	58.04
28.0655	58.15
28.0757	59.08
28.0859	60.32
28.096	59.29
28.1062	61.12
28.1164	61.20
28.1265	59.49
28.1367	61.95
28.1469	61.23
28.157	62.41
28.1672	62.80
28.1774	63.87
28.1875	64.90
28.1977	63.21
28.2079	65.73
28.218	64.45
28.2282	65.54
28.2383	66.88
28.2485	66.42
28.2587	66.93
28.2688	67.23
28.279	67.86
28.2892	69.16
28.2993	68.26
28.3095	70.02
28.3197	70.11
28.3298	69.15
28.34	69.21
28.3502	70.25
28.3603	70.48
28.3705	71.93
28.3806	70.88
28.3908	71.62
28.401	71.02
28.4111	72.40
28.4213	72.20
28.4315	71.82
28.4416	72.16
28.4518	72.38
28.462	72.41
28.4721	72.92
28.4823	73.27
28.4925	72.91
28.5026	74.10
28.5128	73.03
28.523	72.40
28.5331	74.24
28.5433	73.81
28.5534	73.89
28.5636	72.95
28.5738	73.16
28.5839	71.91
28.5941	73.21
28.6043	72.77
28.6144	73.51
28.6246	72.21
28.6348	71.30
28.6449	71.38
28.6551	72.53
28.6653	71.51
28.6754	71.36
28.6856	70.52
28.6957	72.09
28.7059	70.73
28.7161	70.21
28.7262	71.30
28.7364	69.22
28.7466	70.10
28.7567	69.43
28.7669	68.77
28.7771	68.94
28.7872	69.29
28.7974	68.71
28.8076	68.28
28.8177	67.76
28.8279	67.62
28.8381	66.92
28.8482	66.65
28.8584	66.80
28.8685	65.40
28.8787	64.49
28.8889	64.90
28.899	64.04
28.9092	63.35
28.9194	63.46
28.9295	62.63
28.9397	62.15
28.9499	62.91
28.96	62.90
28.9702	60.75
28.9804	61.26
28.9905	60.50
29.0007	61.06
29.0108	59.63
29.021	59.06
29.0312	59.45
29.0413	59.05
29.0515	59.57
29.0617	58.60
29.0718	58.68
29.082	57.83
29.0922	56.76
29.1023	56.72
29.1125	55.88
29.1227	56.16
29.1328	55.51
29.143	54.38
29.1531	56.11
29.1633	55.43
29.1735	54.54
29.1836	53.59
29.1938	54.49
29.204	54.01
29.2141	52.82
29.2243	52.93
29.2345	51.74
29.2446	53.74
29.2548	51.36
29.265	52.21
29.2751	51.07
29.2853	51.07
29.2955	51.49
29.3056	50.78
29.3158	49.59
29.3259	50.26
29.3361	50.73
29.3463	50.70
29.3564	49.71
29.3666	50.44
29.3768	48.98
29.3869	48.59
29.3971	48.92
29.4073	48.99
29.4174	48.16
29.4276	48.34
29.4378	47.26
29.4479	48.78
29.4581	48.29
29.4682	47.39
29.4784	47.41
29.4886	46.85
29.4987	46.49
29.5089	46.45
29.5191	46.81
29.5292	46.49
29.5394	45.92
29.5496	45.93
29.5597	45.65
29.5699	46.73
29.5801	45.79
29.5902	45.23
29.6004	45.43
29.6106	45.37
29.6207	44.78
29.6309	44.88
29.641	45.15
29.6512	44.23
29.6614	44.95
29.6715	45.44
29.6817	43.74
29.6919	46.32
29.702	44.59
29.7122	44.29
29.7224	43.57
29.7325	44.01
29.7427	44.10
29.7529	44.64
29.763	44.48
29.7732	42.99
29.7833	43.11
29.7935	44.62
29.8037	42.95
29.8138	43.24
29.824	43.12
29.8342	43.48
29.8443	42.52
29.8545	43.40
29.8647	42.76
29.8748	43.16
29.885	43.08
29.8952	43.02
29.9053	43.20
29.9155	43.67
29.9257	43.63
29.9358	42.79
29.946	43.13
29.9561	43.17
29.9663	43.21
29.9765	43.37
29.9866	42.09
29.9968	41.99
30.007	41.73
30.0171	42.55
30.0273	41.86
30.0375	41.68
30.0476	41.55
30.0578	42.35
30.068	41.91
30.0781	42.17
30.0883	41.44
30.0984	41.94
30.1086	41.07
30.1188	41.77
30.1289	41.91
30.1391	41.89
30.1493	40.93
30.1594	42.24
30.1696	39.95
30.1798	41.60
30.1899	40.04
30.2001	40.35
30.2103	41.72
30.2204	40.58
30.2306	39.78
30.2408	40.26
30.2509	40.12
30.2611	40.42
30.2712	40.65
30.2814	40.22
30.2916	39.88
30.3017	40.03
30.3119	38.93
30.3221	39.66
30.3322	39.70
30.3424	38.85
30.3526	39.65
30.3627	39.18
30.3729	39.81
30.3831	38.30
30.3932	38.15
30.4034	38.26
30.4135	38.16
30.4237	38.77
30.4339	37.90
30.444	37.90
30.4542	38.40
30.4644	37.65
30.4745	37.97
30.4847	37.92
30.4949	38.09
30.505	37.51
30.5152	37.90
30.5254	37.31
30.5355	36.71
30.5457	37.61
30.5559	37.56
30.566	36.45
30.5762	35.77
30.5863	37.52
30.5965	36.23
30.6067	36.51
30.6168	36.80
30.627	35.72
30.6372	37.27
30.6473	36.49
30.6575	36.58
30.6677	36.41
30.6778	36.39
30.688	35.95
30.6982	35.76
30.7083	36.02
30.7185	36.66
30.7286	35.78
30.7388	35.72
30.749	34.99
30.7591	35.26
30.7693	35.74
30.7795	35.40
30.7896	35.05
30.7998	34.65
30.81	34.37
30.8201	35.49
30.8303	35.71
30.8405	34.84
30.8506	35.91
30.8608	35.26
30.871	35.87
30.8811	34.77
30.8913	35.64
30.9014	34.51
30.9116	34.34
30.9218	35.05
30.9319	34.51
30.9421	33.97
30.9523	34.96
30.9624	34.02
30.9726	34.23
30.9828	35.49
30.9929	33.62
31.0031	34.86
31.0133	34.27
31.0234	33.99
31.0336	33.91
31.0437	33.90
31.0539	33.65
31.0641	34.16
31.0742	34.20
31.0844	34.04
31.0946	34.23
31.1047	33.63
31.1149	32.96
31.1251	33.90
31.1352	33.59
31.1454	33.12
31.1556	33.43
31.1657	33.43
31.1759	32.87
31.186	34.02
31.1962	33.87
31.2064	32.63
31.2165	32.62
31.2267	33.14
31.2369	32.96
31.247	33.04
31.2572	33.02
31.2674	32.80
31.2775	32.43
31.2877	33.65
31.2979	33.16
31.308	32.67
31.3182	33.66
31.3284	33.10
31.3385	33.60
31.3487	34.05
31.3588	31.99
31.369	32.57
31.3792	32.43
31.3893	32.83
31.3995	32.16
31.4097	32.73
31.4198	32.43
31.43	33.04
31.4402	33.01
31.4503	32.57
31.4605	32.70
31.4707	32.13
31.4808	31.90
31.491	32.65
31.5011	32.73
31.5113	32.62
31.5215	31.49
31.5316	32.93
31.5418	31.54
31.552	33.11
31.5621	31.97
31.5723	32.45
31.5825	32.95
31.5926	32.89
31.6028	32.84
31.613	32.07
31.6231	31.76
31.6333	32.11
31.6435	33.18
31.6536	32.08
31.6638	32.68
31.6739	32.66
31.6841	31.82
31.6943	31.86
31.7044	32.48
31.7146	32.55
31.7248	32.93
31.7349	32.23
31.7451	32.74
31.7553	31.75
31.7654	32.12
31.7756	31.63
31.7858	31.90
31.7959	32.16
31.8061	32.62
31.8162	31.77
31.8264	32.63
31.8366	32.01
31.8467	32.71
31.8569	33.07
31.8671	32.70
31.8772	31.76
31.8874	32.38
31.8976	33.42
31.9077	31.85
31.9179	32.35
31.9281	31.52
31.9382	31.20
31.9484	32.70
31.9586	32.40
31.9687	31.90
31.9789	32.18
31.989	32.73
31.9992	32.54
32.0094	32.37
32.0195	32.09
32.0297	32.43
32.0399	31.91
32.05	32.46
32.0602	33.02
32.0704	32.61
32.0805	33.38
32.0907	32.01
32.1009	32.14
32.111	33.00
32.1212	32.86
32.1313	32.88
32.1415	33.01
32.1517	31.90
32.1618	32.38
32.172	32.26
32.1822	32.43
32.1923	32.74
32.2025	32.26
32.2127	32.19
32.2228	32.71
32.233	32.30
32.2432	32.55
32.2533	32.21
32.2635	32.59
32.2737	33.38
32.2838	33.29
32.294	32.65
32.3041	32.21
32.3143	32.30
32.3245	32.38
32.3346	32.56
32.3448	33.51
32.355	33.24
32.3651	32.80
32.3753	33.09
32.3855	33.68
32.3956	32.58
32.4058	32.37
32.416	33.32
32.4261	32.86
32.4363	32.53
32.4464	32.63
32.4566	33.45
32.4668	33.18
32.4769	32.27
32.4871	32.89
32.4973	32.82
32.5074	33.26
32.5176	33.12
32.5278	32.84
32.5379	32.83
32.5481	32.77
32.5583	33.59
32.5684	33.06
32.5786	31.98
32.5888	32.01
32.5989	33.01
32.6091	31.93
32.6192	33.27
32.6294	32.74
32.6396	31.81
32.6497	32.93
32.6599	32.71
32.6701	32.10
32.6802	33.26
32.6904	32.78
32.7006	31.88
32.7107	32.65
32.7209	33.76
32.7311	32.81
32.7412	32.70
32.7514	33.27
32.7615	32.09
32.7717	33.10
32.7819	32.61
32.792	32.24
32.8022	32.77
32.8124	32.49
32.8225	33.41
32.8327	32.41
32.8429	32.26
32.853	33.23
32.8632	32.60
32.8734	32.95
32.8835	32.79
32.8937	32.31
32.9039	33.04
32.914	32.62
32.9242	32.60
32.9343	33.14
32.9445	32.13
32.9547	32.29
32.9648	32.71
32.975	31.64
32.9852	32.49
32.9953	32.73
33.0055	32.34
33.0157	32.37
33.0258	33.01
33.036	31.94
33.0462	32.98
33.0563	33.09
33.0665	32.51
33.0766	31.92
33.0868	33.18
33.097	32.73
33.1071	32.14
33.1173	33.17
33.1275	31.95
33.1376	32.83
33.1478	32.96
33.158	32.48
33.1681	33.63
33.1783	33.09
33.1885	32.49
33.1986	32.98
33.2088	32.43
33.2189	33.23
33.2291	32.61
33.2393	33.23
33.2494	32.23
33.2596	33.16
33.2698	32.55
33.2799	32.69
33.2901	32.58
33.3003	33.15
33.3104	33.37
33.3206	32.55
33.3308	33.11
33.3409	32.65
33.3511	31.86
33.3613	34.15
33.3714	33.79
33.3816	33.08
33.3917	33.10
33.4019	32.91
33.4121	32.91
33.4222	32.85
33.4324	33.70
33.4426	33.04
33.4527	32.85
33.4629	32.87
33.4731	32.56
33.4832	32.52
33.4934	32.93
33.5036	32.51
33.5137	32.79
33.5239	32.92
33.534	33.04
33.5442	32.37
33.5544	31.95
33.5645	31.69
33.5747	31.87
33.5849	31.10
33.595	32.05
33.6052	32.26
33.6154	32.22
33.6255	31.37
33.6357	31.34
33.6459	31.28
33.656	31.24
33.6662	31.75
33.6764	31.12
33.6865	31.65
33.6967	31.16
33.7068	30.87
33.717	30.30
33.7272	30.16
33.7373	30.41
33.7475	31.26
33.7577	29.50
33.7678	30.57
33.778	30.23
33.7882	30.16
33.7983	30.17
33.8085	30.05
33.8187	29.52
33.8288	30.21
33.839	29.47
33.8491	29.55
33.8593	30.25
33.8695	29.48
33.8796	29.51
33.8898	29.37
33.9	28.63
33.9101	29.57
33.9203	28.18
33.9305	28.80
33.9406	28.64
33.9508	29.26
33.961	28.38
33.9711	28.61
33.9813	29.20
33.9915	28.71
34.0016	27.74
34.0118	28.46
34.0219	28.37
34.0321	28.23
34.0423	28.24
34.0524	28.09
34.0626	27.86
34.0728	27.40
34.0829	27.12
34.0931	27.77
34.1033	28.17
34.1134	27.55
34.1236	26.70
34.1338	27.10
34.1439	27.19
34.1541	27.84
34.1642	27.57
34.1744	27.06
34.1846	27.05
34.1947	27.66
34.2049	26.95
34.2151	27.38
34.2252	26.55
34.2354	27.49
34.2456	27.26
34.2557	27.04
34.2659	26.97
34.2761	27.20
34.2862	26.59
34.2964	26.38
34.3066	27.02
34.3167	26.65
34.3269	25.66
34.337	26.58
34.3472	26.96
34.3574	27.18
34.3675	26.54
34.3777	27.01
34.3879	26.75
34.398	26.12
34.4082	26.45
34.4184	27.18
34.4285	26.65
34.4387	25.93
34.4489	26.20
34.459	26.23
34.4692	27.21
34.4793	25.84
34.4895	26.18
34.4997	25.85
34.5098	25.91
34.52	25.23
34.5302	26.48
34.5403	26.49
34.5505	25.90
34.5607	26.12
34.5708	26.10
34.581	25.35
34.5912	25.50
34.6013	25.74
34.6115	26.41
34.6217	25.72
34.6318	25.57
34.642	26.01
34.6521	25.68
34.6623	25.52
34.6725	25.86
34.6826	25.74
34.6928	25.20
34.703	25.09
34.7131	25.49
34.7233	25.36
34.7335	25.96
34.7436	25.66
34.7538	25.23
34.764	25.16
34.7741	25.44
34.7843	24.73
34.7944	25.71
34.8046	25.77
34.8148	24.84
34.8249	25.89
34.8351	24.91
34.8453	24.59
34.8554	25.16
34.8656	25.77
34.8758	24.99
34.8859	25.54
34.8961	25.16
34.9063	24.39
34.9164	24.71
34.9266	25.61
34.9367	24.63
34.9469	24.99
34.9571	25.07
34.9672	25.52
34.9774	25.22
34.9876	24.96
34.9977	25.08
35.0079	24.63
35.0181	25.36
35.0282	25.21
35.0384	25.12
35.0486	25.11
35.0587	24.43
35.0689	24.43
35.0791	24.47
35.0892	24.84
35.0994	24.56
35.1095	25.23
35.1197	24.63
35.1299	25.52
35.14	25.32
35.1502	24.62
35.1604	24.65
35.1705	25.10
35.1807	25.35
35.1909	25.17
35.201	23.99
35.2112	25.26
35.2214	24.87
35.2315	24.45
35.2417	24.68
35.2518	24.04
35.262	25.00
35.2722	24.28
35.2823	25.43
35.2925	24.50
35.3027	24.20
35.3128	24.54
35.323	24.38
35.3332	25.09
35.3433	25.13
35.3535	24.38
35.3637	23.40
35.3738	24.49
35.384	24.44
35.3942	24.72
35.4043	25.32
35.4145	25.01
35.4246	24.99
35.4348	23.66
35.445	24.66
35.4551	23.68
35.4653	24.45
35.4755	24.99
35.4856	24.77
35.4958	24.73
35.506	24.63
35.5161	23.93
35.5263	24.35
35.5365	25.20
35.5466	24.34
35.5568	24.79
35.5669	23.66
35.5771	24.48
35.5873	24.33
35.5974	24.29
35.6076	24.16
35.6178	23.94
35.6279	24.88
35.6381	24.38
35.6483	24.59
35.6584	24.41
35.6686	24.16
35.6788	24.68
35.6889	24.18
35.6991	25.26
35.7093	24.64
35.7194	24.77
35.7296	24.41
35.7397	24.12
35.7499	23.92
35.7601	24.04
35.7702	24.57
35.7804	24.34
35.7906	24.39
35.8007	24.28
35.8109	24.07
35.8211	24.45
35.8312	24.74
35.8414	24.13
35.8516	24.40
35.8617	23.64
35.8719	24.77
35.882	23.88
35.8922	24.36
35.9024	24.33
35.9125	23.48
35.9227	24.60
35.9329	24.43
35.943	24.34
35.9532	24.59
35.9634	23.67
35.9735	24.27
35.9837	23.73
35.9939	24.42
36.004	23.89
36.0142	24.25
36.0244	23.29
36.0345	23.78
36.0447	24.69
36.0548	23.84
36.065	23.49
36.0752	23.73
36.0853	24.16
36.0955	23.81
36.1057	23.84
36.1158	24.24
36.126	23.90
36.1362	24.10
36.1463	24.25
36.1565	24.37
36.1667	23.80
36.1768	24.08
36.187	23.95
36.1971	24.09
36.2073	24.79
36.2175	23.93
36.2276	23.79
36.2378	24.87
36.248	24.18
36.2581	23.73
36.2683	24.01
36.2785	24.24
36.2886	24.44
36.2988	23.99
36.309	24.41
36.3191	23.97
36.3293	23.32
36.3395	24.42
36.3496	24.52
36.3598	24.31
36.3699	24.04
36.3801	24.26
36.3903	24.04
36.4004	24.59
36.4106	24.34
36.4208	23.60
36.4309	23.84
36.4411	23.90
36.4513	23.45
36.4614	24.35
36.4716	24.21
36.4818	24.65
36.4919	24.05
36.5021	24.29
36.5122	24.64
36.5224	23.90
36.5326	24.49
36.5427	24.14
36.5529	24.27
36.5631	23.88
36.5732	23.99
36.5834	24.07
36.5936	24.76
36.6037	24.33
36.6139	24.31
36.6241	24.04
36.6342	24.38
36.6444	24.95
36.6546	24.70
36.6647	23.61
36.6749	23.73
36.685	24.45
36.6952	24.62
36.7054	23.78
36.7155	24.28
36.7257	24.82
36.7359	24.12
36.746	24.79
36.7562	24.96
36.7664	24.18
36.7765	24.01
36.7867	24.18
36.7969	24.57
36.807	24.54
36.8172	24.29
36.8273	24.23
36.8375	24.49
36.8477	24.78
36.8578	24.54
36.868	24.83
36.8782	24.88
36.8883	24.45
36.8985	24.79
36.9087	24.73
36.9188	24.10
36.929	24.72
36.9392	25.59
36.9493	25.29
36.9595	24.61
36.9696	24.93
36.9798	24.38
36.99	24.48
37.0001	24.52
37.0103	25.01
37.0205	25.86
37.0306	24.98
37.0408	25.24
37.051	24.99
37.0611	26.10
37.0713	25.38
37.0815	24.88
37.0916	25.12
37.1018	25.27
37.112	25.34
37.1221	25.32
37.1323	25.57
37.1424	25.02
37.1526	25.20
37.1628	25.79
37.1729	25.22
37.1831	25.45
37.1933	25.94
37.2034	25.18
37.2136	25.97
37.2238	25.68
37.2339	25.70
37.2441	24.88
37.2543	25.19
37.2644	25.44
37.2746	26.08
37.2847	25.77
37.2949	25.70
37.3051	27.14
37.3152	25.38
37.3254	26.48
37.3356	26.23
37.3457	25.78
37.3559	25.97
37.3661	25.89
37.3762	25.64
37.3864	25.68
37.3966	26.37
37.4067	26.31
37.4169	26.34
37.4271	26.84
37.4372	25.87
37.4474	26.71
37.4575	26.90
37.4677	26.22
37.4779	26.22
37.488	26.62
37.4982	26.35
37.5084	26.84
37.5185	26.77
37.5287	26.49
37.5389	26.22
37.549	26.39
37.5592	26.41
37.5694	26.78
37.5795	26.37
37.5897	26.20
37.5998	26.73
37.61	26.93
37.6202	27.23
37.6303	27.13
37.6405	27.16
37.6507	26.88
37.6608	26.67
37.671	27.30
37.6812	27.05
37.6913	27.05
37.7015	27.27
37.7117	26.62
37.7218	26.73
37.732	27.55
37.7422	27.30
37.7523	26.89
37.7625	27.13
37.7726	27.56
37.7828	26.99
37.793	28.09
37.8031	27.78
37.8133	27.44
37.8235	28.00
37.8336	27.62
37.8438	26.99
37.854	27.86
37.8641	27.70
37.8743	28.64
37.8845	27.94
37.8946	27.70
37.9048	28.15
37.9149	27.98
37.9251	28.21
37.9353	28.47
37.9454	28.87
37.9556	28.27
37.9658	29.05
37.9759	28.62
37.9861	28.34
37.9963	28.34
38.0064	28.71
38.0166	28.47
38.0268	28.46
38.0369	28.95
38.0471	29.33
38.0573	29.37
38.0674	29.01
38.0776	28.62
38.0877	28.50
38.0979	29.45
38.1081	28.79
38.1182	29.50
38.1284	29.31
38.1386	28.97
38.1487	29.56
38.1589	29.36
38.1691	29.95
38.1792	29.59
38.1894	29.71
38.1996	30.21
38.2097	30.36
38.2199	29.71
38.23	30.12
38.2402	29.81
38.2504	29.88
38.2605	30.23
38.2707	30.27
38.2809	29.95
38.291	30.70
38.3012	30.25
38.3114	30.08
38.3215	30.72
38.3317	30.13
38.3419	30.35
38.352	30.12
38.3622	30.77
38.3724	31.08
38.3825	29.99
38.3927	30.55
38.4028	30.56
38.413	31.24
38.4232	30.60
38.4333	30.53
38.4435	30.73
38.4537	30.63
38.4638	29.84
38.474	31.50
38.4842	30.74
38.4943	31.37
38.5045	31.66
38.5147	30.99
38.5248	30.60
38.535	30.80
38.5451	31.32
38.5553	30.96
38.5655	30.82
38.5756	30.68
38.5858	30.45
38.596	30.72
38.6061	30.98
38.6163	31.47
38.6265	31.45
38.6366	31.41
38.6468	30.09
38.657	31.13
38.6671	31.21
38.6773	31.27
38.6875	30.29
38.6976	31.30
38.7078	32.02
38.7179	31.10
38.7281	31.28
38.7383	31.29
38.7484	31.55
38.7586	30.65
38.7688	30.66
38.7789	31.00
38.7891	30.54
38.7993	31.01
38.8094	30.92
38.8196	30.85
38.8298	31.51
38.8399	30.75
38.8501	29.94
38.8602	30.48
38.8704	30.33
38.8806	30.25
38.8907	30.38
38.9009	29.81
38.9111	30.49
38.9212	29.81
38.9314	30.26
38.9416	30.38
38.9517	30.22
38.9619	30.32
38.9721	30.10
38.9822	29.90
38.9924	30.05
39.0025	30.04
39.0127	29.71
39.0229	29.93
39.033	30.07
39.0432	29.64
39.0534	29.42
39.0635	29.77
39.0737	29.13
39.0839	29.22
39.094	29.00
39.1042	29.15
39.1144	30.10
39.1245	28.72
39.1347	28.46
39.1449	29.40
39.155	28.99
39.1652	28.85
39.1753	29.52
39.1855	29.17
39.1957	29.12
39.2058	29.04
39.216	28.99
39.2262	27.99
39.2363	29.81
39.2465	28.96
39.2567	28.47
39.2668	28.71
39.277	28.76
39.2872	28.54
39.2973	28.41
39.3075	28.65
39.3176	28.77
39.3278	27.79
39.338	28.32
39.3481	28.24
39.3583	27.36
39.3685	28.20
39.3786	28.40
39.3888	28.10
39.399	27.48
39.4091	27.18
39.4193	28.16
39.4295	27.85
39.4396	27.13
39.4498	27.27
39.46	27.84
39.4701	27.17
39.4803	27.05
39.4904	26.72
39.5006	27.34
39.5108	26.97
39.5209	26.78
39.5311	26.77
39.5413	27.14
39.5514	27.06
39.5616	27.38
39.5718	26.45
39.5819	27.25
39.5921	26.76
39.6023	26.79
39.6124	27.04
39.6226	27.18
39.6327	26.31
39.6429	26.82
39.6531	26.32
39.6632	26.63
39.6734	26.16
39.6836	26.23
39.6937	26.38
39.7039	26.16
39.7141	26.02
39.7242	26.47
39.7344	26.32
39.7446	25.90
39.7547	25.46
39.7649	26.13
39.7751	25.48
39.7852	25.87
39.7954	25.37
39.8055	25.49
39.8157	25.96
39.8259	26.14
39.836	25.69
39.8462	25.62
39.8564	26.05
39.8665	25.65
39.8767	25.24
39.8869	25.52
39.897	26.22
39.9072	25.60
39.9174	25.73
39.9275	25.90
39.9377	25.40
39.9478	25.77
39.958	25.51
39.9682	25.87
39.9783	25.84
39.9885	25.77
39.9987	25.35
40.0088	25.15
