5.0023	52.27
5.0125	51.53
5.0226	50.46
5.0328	49.55
5.043	48.48
5.0531	48.87
5.0633	47.85
5.0735	46.88
5.0836	46.10
5.0938	45.87
5.1039	45.10
5.1141	45.06
5.1243	44.06
5.1344	44.12
5.1446	44.30
5.1548	43.50
5.1649	42.26
5.1751	41.68
5.1853	40.83
5.1954	41.10
5.2056	39.75
5.2158	39.98
5.2259	39.51
5.2361	38.89
5.2462	38.41
5.2564	37.65
5.2666	38.34
5.2767	37.36
5.2869	35.78
5.2971	36.66
5.3072	37.19
5.3174	35.79
5.3276	35.74
5.3377	34.60
5.3479	34.48
5.3581	35.26
5.3682	32.48
5.3784	33.43
5.3886	32.93
5.3987	32.89
5.4089	32.18
5.419	32.24
5.4292	31.69
5.4394	31.91
5.4495	31.91
5.4597	31.98
5.4699	31.37
5.48	31.44
5.4902	29.86
5.5004	29.70
5.5105	30.63
5.5207	29.26
5.5309	29.95
5.541	29.86
5.5512	28.97
5.5613	28.72
5.5715	29.35
5.5817	28.79
5.5918	27.64
5.602	27.98
5.6122	27.52
5.6223	28.21
5.6325	27.14
5.6427	26.93
5.6528	27.88
5.663	25.86
5.6732	26.23
5.6833	27.09
5.6935	26.71
5.7036	25.42
5.7138	26.24
5.724	26.73
5.7341	26.06
5.7443	25.76
5.7545	26.77
5.7646	25.66
5.7748	25.77
5.785	25.12
5.7951	25.20
5.8053	25.99
5.8155	25.10
5.8256	25.32
5.8358	25.35
5.846	24.90
5.8561	25.13
5.8663	24.77
5.8764	24.60
5.8866	24.91
5.8968	25.19
5.9069	24.74
5.9171	24.48
5.9273	24.46
5.9374	25.25
5.9476	24.09
5.9578	24.56
5.9679	24.04
5.9781	24.74
5.9883	24.57
5.9984	24.29
6.0086	25.14
6.0187	24.24
6.0289	25.07
6.0391	24.89
6.0492	24.79
6.0594	24.74
6.0696	24.95
6.0797	24.98
6.0899	24.05
6.1001	25.01
6.1102	24.27
6.1204	24.95
6.1306	24.79
6.1407	23.97
6.1509	23.59
6.1611	24.23
6.1712	24.47
6.1814	23.95
6.1915	24.32
6.2017	23.31
6.2119	24.45
6.222	24.13
6.2322	24.76
6.2424	24.13
6.2525	24.17
6.2627	24.59
6.2729	24.95
6.283	23.73
6.2932	24.58
6.3034	24.41
6.3135	23.91
6.3237	24.59
6.3338	23.89
6.344	24.46
6.3542	24.67
6.3643	25.05
6.3745	24.35
6.3847	24.37
6.3948	24.19
6.405	24.82
6.4152	23.49
6.4253	24.10
6.4355	24.62
6.4457	23.58
6.4558	24.51
6.466	24.34
6.4762	23.68
6.4863	24.79
6.4965	24.62
6.5066	23.77
6.5168	24.55
6.527	24.23
6.5371	24.90
6.5473	24.53
6.5575	24.90
6.5676	25.17
6.5778	23.90
6.588	24.38
6.5981	24.99
6.6083	24.38
6.6185	24.60
6.6286	24.76
6.6388	24.56
6.6489	24.56
6.6591	24.99
6.6693	25.05
6.6794	25.65
6.6896	24.54
6.6998	25.26
6.7099	24.76
6.7201	26.05
6.7303	24.31
6.7404	25.68
6.7506	25.03
6.7608	24.38
6.7709	25.04
6.7811	24.48
6.7913	25.88
6.8014	25.00
6.8116	24.56
6.8217	25.10
6.8319	25.36
6.8421	24.96
6.8522	24.12
6.8624	25.07
6.8726	24.01
6.8827	24.79
6.8929	25.07
6.9031	24.84
6.9132	24.55
6.9234	24.54
6.9336	25.90
6.9437	25.38
6.9539	25.62
6.964	25.27
6.9742	25.81
6.9844	26.14
6.9945	25.99
7.0047	25.87
7.0149	25.08
7.025	24.80
7.0352	24.30
7.0454	25.63
7.0555	24.66
7.0657	24.63
7.0759	25.28
7.086	25.21
7.0962	25.49
7.1064	25.19
7.1165	24.96
7.1267	25.99
7.1368	25.40
7.147	25.87
7.1572	25.76
7.1673	25.87
7.1775	26.57
7.1877	25.68
7.1978	26.05
7.208	26.27
7.2182	26.30
7.2283	26.35
7.2385	25.73
7.2487	25.31
7.2588	25.88
7.269	25.22
7.2791	26.38
7.2893	25.68
7.2995	25.49
7.3096	26.81
7.3198	26.32
7.33	26.46
7.3401	26.07
7.3503	25.99
7.3605	25.52
7.3706	26.24
7.3808	26.62
7.391	25.48
7.4011	26.57
7.4113	26.08
7.4215	27.01
7.4316	26.32
7.4418	26.95
7.4519	25.52
7.4621	26.59
7.4723	26.44
7.4824	26.13
7.4926	26.70
7.5028	25.61
7.5129	26.74
7.5231	26.80
7.5333	26.84
7.5434	26.72
7.5536	26.21
7.5638	27.26
7.5739	26.59
7.5841	26.71
7.5942	27.02
7.6044	27.30
7.6146	26.73
7.6247	27.52
7.6349	26.71
7.6451	27.57
7.6552	26.68
7.6654	27.32
7.6756	27.23
7.6857	27.79
7.6959	26.94
7.7061	26.46
7.7162	27.62
7.7264	26.89
7.7365	26.73
7.7467	26.63
7.7569	27.18
7.767	26.74
7.7772	27.25
7.7874	27.18
7.7975	26.88
7.8077	27.02
7.8179	27.43
7.828	26.56
7.8382	27.84
7.8484	27.27
7.8585	27.86
7.8687	28.18
7.8789	27.05
7.889	27.41
7.8992	27.48
7.9093	27.79
7.9195	27.84
7.9297	27.57
7.9398	27.65
7.95	27.54
7.9602	28.12
7.9703	27.04
7.9805	28.25
7.9907	28.09
8.0008	26.97
8.011	27.93
8.0212	28.46
8.0313	27.18
8.0415	28.29
8.0516	26.85
8.0618	27.24
8.072	28.02
8.0821	28.09
8.0923	28.26
8.1025	29.23
8.1126	28.04
8.1228	28.05
8.133	28.75
8.1431	28.23
8.1533	28.56
8.1635	29.03
8.1736	28.16
8.1838	28.46
8.194	28.58
8.2041	28.57
8.2143	29.04
8.2244	28.61
8.2346	28.43
8.2448	27.56
8.2549	28.95
8.2651	29.24
8.2753	28.66
8.2854	28.47
8.2956	28.55
8.3058	28.83
8.3159	29.02
8.3261	29.69
8.3363	28.24
8.3464	28.90
8.3566	29.24
8.3667	28.96
8.3769	28.99
8.3871	28.91
8.3972	29.20
8.4074	28.82
8.4176	28.87
8.4277	29.38
8.4379	29.03
8.4481	28.87
8.4582	28.99
8.4684	29.10
8.4786	29.70
8.4887	28.75
8.4989	29.85
8.5091	29.44
8.5192	28.76
8.5294	28.63
8.5395	28.85
8.5497	29.55
8.5599	30.15
8.57	29.04
8.5802	28.80
8.5904	29.13
8.6005	29.40
8.6107	29.59
8.6209	29.04
8.631	29.55
8.6412	29.34
8.6514	28.83
8.6615	29.73
8.6717	29.35
8.6818	29.28
8.692	29.96
8.7022	28.93
8.7123	28.99
8.7225	29.25
8.7327	28.99
8.7428	29.75
8.753	29.58
8.7632	29.88
8.7733	29.42
8.7835	30.36
8.7937	29.66
8.8038	29.98
8.814	30.15
8.8242	29.65
8.8343	30.73
8.8445	30.15
8.8546	29.11
8.8648	30.07
8.875	30.58
8.8851	29.87
8.8953	29.57
8.9055	30.09
8.9156	29.98
8.9258	29.60
8.936	29.88
8.9461	29.34
8.9563	29.59
8.9665	29.40
8.9766	29.65
8.9868	30.82
8.9969	29.58
9.0071	30.18
9.0173	30.53
9.0274	31.02
9.0376	29.45
9.0478	30.71
9.0579	30.24
9.0681	30.63
9.0783	30.49
9.0884	30.62
9.0986	30.53
9.1088	30.52
9.1189	30.38
9.1291	30.30
9.1393	32.03
9.1494	30.56
9.1596	29.54
9.1697	30.53
9.1799	31.04
9.1901	31.29
9.2002	31.14
9.2104	30.63
9.2206	31.20
9.2307	31.43
9.2409	30.03
9.2511	30.59
9.2612	31.85
9.2714	30.99
9.2816	30.70
9.2917	30.57
9.3019	31.48
9.312	31.35
9.3222	30.98
9.3324	31.46
9.3425	30.62
9.3527	30.72
9.3629	31.43
9.373	30.84
9.3832	31.03
9.3934	30.51
9.4035	31.32
9.4137	31.45
9.4239	31.54
9.434	31.49
9.4442	31.63
9.4544	32.62
9.4645	31.89
9.4747	31.86
9.4848	31.77
9.495	31.25
9.5052	31.98
9.5153	32.34
9.5255	31.62
9.5357	31.81
9.5458	31.24
9.556	31.43
9.5662	31.57
9.5763	31.93
9.5865	31.34
9.5967	32.20
9.6068	31.65
9.617	31.89
9.6271	31.62
9.6373	32.34
9.6475	31.77
9.6576	31.57
9.6678	31.54
9.678	31.42
9.6881	32.06
9.6983	31.49
9.7085	31.50
9.7186	31.84
9.7288	32.15
9.739	31.83
9.7491	32.17
9.7593	31.78
9.7694	32.45
9.7796	32.48
9.7898	31.85
9.7999	32.82
9.8101	31.83
9.8203	32.14
9.8304	32.37
9.8406	32.15
9.8508	32.29
9.8609	32.98
9.8711	32.42
9.8813	32.65
9.8914	32.80
9.9016	32.74
9.9118	32.82
9.9219	32.73
9.9321	32.46
9.9422	33.09
9.9524	32.18
9.9626	33.39
9.9727	33.51
9.9829	32.34
9.9931	32.65
10.0032	32.78
10.0134	32.34
10.0236	32.59
10.0337	32.40
10.0439	33.00
10.0541	33.18
10.0642	31.65
10.0744	32.16
10.0845	33.13
10.0947	32.16
10.1049	32.39
10.115	32.99
10.1252	32.48
10.1354	32.63
10.1455	33.06
10.1557	34.41
10.1659	33.55
10.176	32.66
10.1862	32.82
10.1964	33.96
10.2065	32.80
10.2167	32.89
10.2269	33.49
10.237	33.84
10.2472	32.72
10.2573	33.12
10.2675	33.51
10.2777	33.16
10.2878	33.24
10.298	34.01
10.3082	33.80
10.3183	34.15
10.3285	33.41
10.3387	33.25
10.3488	34.09
10.359	34.26
10.3692	33.54
10.3793	34.05
10.3895	33.60
10.3996	33.49
10.4098	34.92
10.42	34.47
10.4301	33.35
10.4403	35.55
10.4505	34.63
10.4606	33.85
10.4708	33.86
10.481	34.68
10.4911	33.93
10.5013	33.20
10.5115	34.43
10.5216	34.47
10.5318	34.49
10.542	34.50
10.5521	33.51
10.5623	34.01
10.5724	34.38
10.5826	34.24
10.5928	33.45
10.6029	34.60
10.6131	34.00
10.6233	34.79
10.6334	33.69
10.6436	34.43
10.6538	34.91
10.6639	34.22
10.6741	35.19
10.6843	33.27
10.6944	34.68
10.7046	34.73
10.7147	35.04
10.7249	34.50
10.7351	34.48
10.7452	34.39
10.7554	35.07
10.7656	34.26
10.7757	35.18
10.7859	34.72
10.7961	35.54
10.8062	34.50
10.8164	35.05
10.8266	34.88
10.8367	34.22
10.8469	34.94
10.8571	34.85
10.8672	35.02
10.8774	35.61
10.8875	35.27
10.8977	34.66
10.9079	34.77
10.918	34.07
10.9282	35.52
10.9384	35.15
10.9485	35.55
10.9587	35.31
10.9689	35.45
10.979	35.15
10.9892	35.18
10.9994	35.21
11.0095	36.10
11.0197	35.40
11.0298	36.74
11.04	35.16
11.0502	36.04
11.0603	35.54
11.0705	34.85
11.0807	35.75
11.0908	35.07
11.101	35.33
11.1112	35.73
11.1213	36.80
11.1315	36.54
11.1417	35.92
11.1518	36.49
11.162	35.85
11.1722	36.41
11.1823	35.70
11.1925	34.67
11.2026	36.30
11.2128	36.34
11.223	35.98
11.2331	36.35
11.2433	36.42
11.2535	35.99
11.2636	35.59
11.2738	35.78
11.284	36.43
11.2941	36.13
11.3043	36.88
11.3145	36.11
11.3246	37.10
11.3348	36.93
11.3449	36.45
11.3551	36.10
11.3653	35.84
11.3754	37.24
11.3856	36.91
11.3958	37.21
11.4059	37.16
11.4161	36.82
11.4263	36.48
11.4364	36.46
11.4466	37.94
11.4568	37.52
11.4669	36.90
11.4771	37.28
11.4873	36.90
11.4974	38.10
11.5076	35.87
11.5177	36.37
11.5279	36.72
11.5381	36.84
11.5482	37.21
11.5584	37.32
11.5686	37.71
11.5787	37.02
11.5889	37.18
11.5991	38.27
11.6092	37.98
11.6194	37.88
11.6296	37.80
11.6397	38.38
11.6499	38.66
11.66	37.17
11.6702	37.94
11.6804	38.04
11.6905	38.51
11.7007	37.91
11.7109	39.16
11.721	37.92
11.7312	38.68
11.7414	39.09
11.7515	38.39
11.7617	38.07
11.7719	38.45
11.782	38.57
11.7922	38.78
11.8023	38.43
11.8125	38.87
11.8227	38.96
11.8328	37.78
11.843	38.07
11.8532	38.59
11.8633	38.19
11.8735	39.71
11.8837	38.23
11.8938	38.38
11.904	38.80
11.9142	38.40
11.9243	38.55
11.9345	39.16
11.9447	38.99
11.9548	38.46
11.965	38.82
11.9751	39.78
11.9853	38.97
11.9955	38.61
12.0056	39.05
12.0158	39.29
12.026	39.65
12.0361	40.00
12.0463	39.09
12.0565	38.95
12.0666	39.02
12.0768	38.97
12.087	39.05
12.0971	39.15
12.1073	38.71
12.1174	39.27
12.1276	38.93
12.1378	39.82
12.1479	39.18
12.1581	40.29
12.1683	39.34
12.1784	39.80
12.1886	39.80
12.1988	39.62
12.2089	40.39
12.2191	40.55
12.2293	39.26
12.2394	40.49
12.2496	39.63
12.2598	40.55
12.2699	40.59
12.2801	41.02
12.2902	39.30
12.3004	41.40
12.3106	40.68
12.3207	40.64
12.3309	40.24
12.3411	40.27
12.3512	40.46
12.3614	41.13
12.3716	40.41
12.3817	40.30
12.3919	41.03
12.4021	40.98
12.4122	40.80
12.4224	41.04
12.4325	41.41
12.4427	41.39
12.4529	40.99
12.463	41.87
12.4732	42.16
12.4834	42.46
12.4935	42.27
12.5037	41.82
12.5139	41.63
12.524	41.96
12.5342	41.30
12.5444	41.51
12.5545	43.14
12.5647	41.96
12.5749	42.52
12.585	42.20
12.5952	41.93
12.6053	43.38
12.6155	41.37
12.6257	41.90
12.6358	42.58
12.646	43.01
12.6562	42.59
12.6663	42.54
12.6765	41.89
12.6867	43.19
12.6968	43.26
12.707	42.58
12.7172	41.67
12.7273	44.00
12.7375	43.38
12.7476	43.84
12.7578	43.22
12.768	42.53
12.7781	44.29
12.7883	42.93
12.7985	42.63
12.8086	43.79
12.8188	42.71
12.829	42.52
12.8391	43.08
12.8493	44.06
12.8595	44.52
12.8696	44.35
12.8798	44.53
12.89	44.29
12.9001	43.59
12.9103	43.84
12.9204	44.18
12.9306	44.77
12.9408	43.25
12.9509	43.84
12.9611	43.76
12.9713	44.35
12.9814	43.66
12.9916	43.88
13.0018	45.52
13.0119	44.16
13.0221	44.80
13.0323	45.26
13.0424	45.09
13.0526	44.71
13.0627	45.10
13.0729	45.40
13.0831	45.30
13.0932	46.30
13.1034	43.42
13.1136	45.20
13.1237	45.15
13.1339	45.44
13.1441	46.05
13.1542	44.62
13.1644	45.88
13.1746	47.23
13.1847	45.98
13.1949	45.90
13.2051	46.02
13.2152	45.57
13.2254	46.45
13.2355	44.91
13.2457	46.83
13.2559	45.68
13.266	45.32
13.2762	45.87
13.2864	45.63
13.2965	46.48
13.3067	46.81
13.3169	45.88
13.327	46.20
13.3372	47.02
13.3474	47.41
13.3575	47.02
13.3677	46.48
13.3778	46.68
13.388	46.82
13.3982	47.32
13.4083	47.11
13.4185	48.12
13.4287	47.29
13.4388	47.82
13.449	47.54
13.4592	47.91
13.4693	48.22
13.4795	48.70
13.4897	48.02
13.4998	48.27
13.51	48.04
13.5201	48.21
13.5303	48.34
13.5405	48.57
13.5506	49.20
13.5608	49.38
13.571	47.95
13.5811	49.29
13.5913	49.55
13.6015	48.85
13.6116	49.47
13.6218	49.15
13.632	48.75
13.6421	48.98
13.6523	49.34
13.6625	49.64
13.6726	49.15
13.6828	49.66
13.6929	49.24
13.7031	50.40
13.7133	50.76
13.7234	49.18
13.7336	50.71
13.7438	49.48
13.7539	49.59
13.7641	50.25
13.7743	50.19
13.7844	50.09
13.7946	51.58
13.8048	51.33
13.8149	51.92
13.8251	52.57
13.8352	51.38
13.8454	50.54
13.8556	52.65
13.8657	51.07
13.8759	51.59
13.8861	51.05
13.8962	53.34
13.9064	50.93
13.9166	53.32
13.9267	50.82
13.9369	51.88
13.9471	53.11
13.9572	52.38
13.9674	52.13
13.9776	53.86
13.9877	52.67
13.9979	51.82
14.008	54.14
14.0182	52.38
14.0284	53.47
14.0385	53.71
14.0487	54.34
14.0589	53.10
14.069	52.65
14.0792	53.31
14.0894	53.96
14.0995	54.02
14.1097	54.47
14.1199	53.43
14.13	55.09
14.1402	54.63
14.1503	52.98
14.1605	53.99
14.1707	53.69
14.1808	54.18
14.191	54.35
14.2012	55.02
14.2113	54.38
14.2215	55.68
14.2317	55.78
14.2418	54.26
14.252	55.63
14.2622	54.76
14.2723	55.29
14.2825	55.32
14.2927	56.15
14.3028	57.06
14.313	57.03
14.3231	56.90
14.3333	56.35
14.3435	55.44
14.3536	55.95
14.3638	56.24
14.374	56.18
14.3841	56.54
14.3943	56.78
14.4045	57.12
14.4146	57.51
14.4248	56.88
14.435	57.59
14.4451	57.93
14.4553	56.65
14.4654	58.11
14.4756	58.86
14.4858	57.35
14.4959	58.34
14.5061	57.27
14.5163	57.90
14.5264	58.82
14.5366	57.62
14.5468	57.72
14.5569	58.88
14.5671	57.99
14.5773	58.84
14.5874	58.79
14.5976	59.69
14.6078	59.59
14.6179	59.37
14.6281	59.67
14.6382	60.43
14.6484	60.63
14.6586	59.21
14.6687	59.84
14.6789	60.55
14.6891	60.59
14.6992	60.50
14.7094	59.97
14.7196	59.87
14.7297	60.87
14.7399	60.12
14.7501	60.79
14.7602	61.33
14.7704	62.02
14.7805	62.41
14.7907	60.84
14.8009	62.85
14.811	60.87
14.8212	61.84
14.8314	62.84
14.8415	63.74
14.8517	61.66
14.8619	62.80
14.872	63.18
14.8822	62.49
14.8924	63.65
14.9025	62.87
14.9127	63.93
14.9229	63.27
14.933	63.61
14.9432	63.02
14.9533	64.38
14.9635	62.51
14.9737	62.76
14.9838	64.66
14.994	64.88
15.0042	64.65
15.0143	64.62
15.0245	65.22
15.0347	64.79
15.0448	65.47
15.055	64.66
15.0652	66.74
15.0753	64.99
15.0855	65.01
15.0956	65.21
15.1058	64.45
15.116	66.84
15.1261	67.20
15.1363	66.48
15.1465	66.10
15.1566	66.46
15.1668	66.95
15.177	67.36
15.1871	66.64
15.1973	67.51
15.2075	67.26
15.2176	67.54
15.2278	67.45
15.238	68.72
15.2481	67.37
15.2583	68.09
15.2684	68.49
15.2786	69.42
15.2888	68.93
15.2989	68.44
15.3091	68.51
15.3193	70.22
15.3294	69.26
15.3396	69.59
15.3498	69.97
15.3599	69.91
15.3701	69.31
15.3803	69.95
15.3904	70.62
15.4006	68.37
15.4107	70.74
15.4209	70.56
15.4311	70.91
15.4412	71.20
15.4514	72.22
15.4616	71.50
15.4717	72.71
15.4819	71.80
15.4921	70.23
15.5022	71.96
15.5124	72.65
15.5226	72.27
15.5327	72.48
15.5429	71.65
15.553	73.60
15.5632	73.00
15.5734	73.39
15.5835	74.71
15.5937	73.95
15.6039	73.55
15.614	74.01
15.6242	73.77
15.6344	75.32
15.6445	74.02
15.6547	75.66
15.6649	73.98
15.675	74.32
15.6852	75.63
15.6954	75.08
15.7055	75.07
15.7157	76.23
15.7258	75.73
15.736	75.18
15.7462	76.12
15.7563	75.76
15.7665	76.66
15.7767	75.84
15.7868	76.27
15.797	76.65
15.8072	76.96
15.8173	77.05
15.8275	78.14
15.8377	77.48
15.8478	77.46
15.858	78.07
15.8681	78.39
15.8783	79.29
15.8885	79.09
15.8986	78.64
15.9088	79.94
15.919	79.12
15.9291	81.33
15.9393	78.94
15.9495	80.23
15.9596	80.22
15.9698	78.49
15.98	79.80
15.9901	79.71
16.0003	80.57
16.0105	79.56
16.0206	81.90
16.0308	81.40
16.0409	82.43
16.0511	82.24
16.0613	81.67
16.0714	81.22
16.0816	80.15
16.0918	82.70
16.1019	81.80
16.1121	82.71
16.1223	82.39
16.1324	83.48
16.1426	84.13
16.1528	83.10
16.1629	83.18
16.1731	83.73
16.1832	83.48
16.1934	83.85
16.2036	83.09
16.2137	82.70
16.2239	85.60
16.2341	85.13
16.2442	85.64
16.2544	84.43
16.2646	85.07
16.2747	85.91
16.2849	87.57
16.2951	86.76
16.3052	86.83
16.3154	85.96
16.3256	86.37
16.3357	86.91
16.3459	87.33
16.356	88.81
16.3662	87.77
16.3764	89.13
16.3865	88.63
16.3967	89.02
16.4069	89.26
16.417	87.84
16.4272	89.18
16.4374	89.04
16.4475	88.48
16.4577	88.64
16.4679	89.28
16.478	90.44
16.4882	89.76
16.4983	91.62
16.5085	91.07
16.5187	89.91
16.5288	92.22
16.539	89.89
16.5492	91.29
16.5593	91.29
16.5695	93.62
16.5797	92.51
16.5898	91.45
16.6	92.60
16.6102	93.95
16.6203	92.49
16.6305	94.21
16.6407	93.62
16.6508	92.90
16.661	93.63
16.6711	94.33
16.6813	96.23
16.6915	94.99
16.7016	95.67
16.7118	94.05
16.722	96.18
16.7321	96.68
16.7423	95.91
16.7525	97.70
16.7626	96.60
16.7728	95.46
16.783	97.45
16.7931	96.87
16.8033	98.20
16.8134	98.80
16.8236	97.46
16.8338	98.34
16.8439	97.57
16.8541	98.02
16.8643	98.91
16.8744	100.57
16.8846	99.33
16.8948	99.18
16.9049	101.27
16.9151	99.30
16.9253	99.18
16.9354	101.47
16.9456	99.94
16.9558	99.81
16.9659	101.52
16.9761	101.86
16.9862	101.07
16.9964	101.49
17.0066	100.43
17.0167	101.91
17.0269	102.73
17.0371	101.91
17.0472	102.03
17.0574	101.27
17.0676	102.91
17.0777	102.30
17.0879	105.18
17.0981	103.24
17.1082	103.21
17.1184	103.56
17.1285	102.13
17.1387	103.49
17.1489	104.04
17.159	103.30
17.1692	106.60
17.1794	104.42
17.1895	104.91
17.1997	104.35
17.2099	106.79
17.22	105.75
17.2302	105.19
17.2404	106.94
17.2505	106.91
17.2607	106.52
17.2709	106.80
17.281	106.87
17.2912	107.21
17.3013	109.02
17.3115	105.84
17.3217	108.05
17.3318	110.41
17.342	107.02
17.3522	107.81
17.3623	108.95
17.3725	109.74
17.3827	109.21
17.3928	110.09
17.403	109.55
17.4132	111.18
17.4233	110.59
17.4335	110.28
17.4436	111.88
17.4538	112.21
17.464	110.36
17.4741	111.11
17.4843	112.66
17.4945	111.57
17.5046	112.55
17.5148	113.88
17.525	113.26
17.5351	113.57
17.5453	114.02
17.5555	113.57
17.5656	115.10
17.5758	113.24
17.5859	115.12
17.5961	116.49
17.6063	116.74
17.6164	117.20
17.6266	115.20
17.6368	117.06
17.6469	115.81
17.6571	117.54
17.6673	118.55
17.6774	118.43
17.6876	118.27
17.6978	119.05
17.7079	119.24
17.7181	119.69
17.7283	122.10
17.7384	121.84
17.7486	120.32
17.7587	122.68
17.7689	123.12
17.7791	121.40
17.7892	123.48
17.7994	123.32
17.8096	124.54
17.8197	126.44
17.8299	125.16
17.8401	124.95
17.8502	128.45
17.8604	127.80
17.8706	126.34
17.8807	127.05
17.8909	130.71
17.901	128.72
17.9112	130.73
17.9214	131.33
17.9315	132.10
17.9417	133.01
17.9519	132.20
17.962	135.38
17.9722	135.04
17.9824	134.98
17.9925	136.35
18.0027	139.51
18.0129	137.25
18.023	139.99
18.0332	139.39
18.0434	140.18
18.0535	140.98
18.0637	143.59
18.0738	145.36
18.084	143.87
18.0942	147.25
18.1043	146.88
18.1145	147.65
18.1247	150.05
18.1348	151.84
18.145	151.59
18.1552	155.15
18.1653	155.10
18.1755	158.06
18.1857	158.52
18.1958	158.71
18.206	159.40
18.2161	165.09
18.2263	163.73
18.2365	167.46
18.2466	169.36
18.2568	169.61
18.267	171.79
18.2771	174.24
18.2873	176.68
18.2975	174.60
18.3076	180.17
18.3178	181.60
18.328	181.26
18.3381	187.70
18.3483	189.29
18.3585	190.27
18.3686	194.48
18.3788	196.30
18.3889	196.95
18.3991	201.46
18.4093	202.60
18.4194	203.87
18.4296	208.94
18.4398	211.71
18.4499	208.68
18.4601	214.67
18.4703	219.26
18.4804	219.37
18.4906	223.81
18.5008	226.41
18.5109	230.40
18.5211	231.09
18.5312	234.79
18.5414	233.72
18.5516	235.90
18.5617	238.45
18.5719	240.59
18.5821	245.11
18.5922	247.77
18.6024	247.03
18.6126	248.94
18.6227	254.10
18.6329	251.83
18.6431	254.10
18.6532	255.33
18.6634	252.88
18.6736	255.27
18.6837	255.70
18.6939	257.25
18.704	259.57
18.7142	257.71
18.7244	254.84
18.7345	258.54
18.7447	258.24
18.7549	255.26
18.765	252.52
18.7752	254.26
18.7854	249.53
18.7955	252.37
18.8057	248.67
18.8159	246.96
18.826	246.66
18.8362	244.73
18.8463	242.13
18.8565	241.62
18.8667	238.41
18.8768	235.27
18.887	233.67
18.8972	231.69
18.9073	229.02
18.9175	227.76
18.9277	226.56
18.9378	222.52
18.948	221.20
18.9582	218.65
18.9683	215.04
18.9785	214.41
18.9887	211.75
18.9988	210.11
19.009	205.16
19.0191	205.90
19.0293	201.26
19.0395	201.01
19.0496	198.46
19.0598	195.63
19.07	193.54
19.0801	191.25
19.0903	189.33
19.1005	188.48
19.1106	186.71
19.1208	183.07
19.131	183.05
19.1411	180.13
19.1513	178.01
19.1614	176.76
19.1716	176.99
19.1818	171.95
19.1919	172.54
19.2021	171.16
19.2123	167.79
19.2224	167.10
19.2326	168.24
19.2428	163.50
19.2529	165.10
19.2631	162.63
19.2733	158.93
19.2834	160.70
19.2936	160.00
19.3038	158.14
19.3139	157.24
19.3241	156.34
19.3342	153.34
19.3444	155.40
19.3546	152.74
19.3647	152.37
19.3749	153.10
19.3851	150.10
19.3952	149.08
19.4054	149.57
19.4156	146.80
19.4257	147.20
19.4359	147.29
19.4461	144.36
19.4562	143.16
19.4664	144.32
19.4765	144.22
19.4867	142.70
19.4969	144.74
19.507	142.92
19.5172	139.95
19.5274	140.66
19.5375	141.34
19.5477	139.77
19.5579	138.77
19.568	139.65
19.5782	137.46
19.5884	139.30
19.5985	137.71
19.6087	136.10
19.6188	136.90
19.629	137.06
19.6392	135.83
19.6493	135.12
19.6595	135.52
19.6697	134.22
19.6798	134.04
19.69	132.80
19.7002	134.09
19.7103	134.15
19.7205	132.79
19.7307	131.34
19.7408	134.21
19.751	132.40
19.7612	130.21
19.7713	133.02
19.7815	131.74
19.7916	131.87
19.8018	131.66
19.812	131.52
19.8221	130.88
19.8323	131.10
19.8425	131.09
19.8526	130.82
19.8628	130.85
19.873	128.98
19.8831	130.82
19.8933	132.58
19.9035	130.91
19.9136	130.38
19.9238	131.37
19.9339	130.56
19.9441	130.41
19.9543	131.36
19.9644	129.44
19.9746	129.58
19.9848	130.21
19.9949	131.30
20.0051	130.70
20.0153	130.30
20.0254	130.53
20.0356	131.59
20.0458	130.07
20.0559	129.98
20.0661	131.17
20.0763	130.27
20.0864	131.60
20.0966	129.96
20.1067	133.16
20.1169	131.99
20.1271	131.97
20.1372	131.40
20.1474	132.71
20.1576	131.59
20.1677	132.22
20.1779	132.56
20.1881	129.34
20.1982	132.84
20.2084	132.85
20.2186	132.76
20.2287	133.57
20.2389	134.07
20.249	131.15
20.2592	133.84
20.2694	133.26
20.2795	133.75
20.2897	134.34
20.2999	133.66
20.31	134.63
20.3202	134.95
20.3304	136.23
20.3405	134.43
20.3507	136.80
20.3609	135.91
20.371	135.57
20.3812	136.61
20.3914	137.37
20.4015	134.76
20.4117	137.98
20.4218	138.01
20.432	136.91
20.4422	137.26
20.4523	138.85
20.4625	137.52
20.4727	137.95
20.4828	138.69
20.493	137.34
20.5032	139.91
20.5133	138.02
20.5235	137.34
20.5337	139.70
20.5438	141.09
20.554	138.62
20.5641	139.40
20.5743	140.57
20.5845	138.21
20.5946	140.82
20.6048	141.07
20.615	138.84
20.6251	141.74
20.6353	139.28
20.6455	139.48
20.6556	140.71
20.6658	140.45
20.676	140.10
20.6861	141.40
20.6963	141.96
20.7065	137.97
20.7166	139.46
20.7268	139.06
20.7369	136.87
20.7471	138.20
20.7573	138.85
20.7674	137.41
20.7776	137.28
20.7878	136.10
20.7979	135.88
20.8081	136.31
20.8183	136.55
20.8284	134.74
20.8386	135.23
20.8488	134.96
20.8589	134.07
20.8691	135.45
20.8792	133.49
20.8894	131.71
20.8996	132.07
20.9097	130.47
20.9199	131.51
20.9301	131.90
20.9402	131.29
20.9504	130.60
20.9606	130.55
20.9707	129.30
20.9809	129.30
20.9911	128.65
21.0012	127.73
21.0114	128.23
21.0216	128.62
21.0317	126.70
21.0419	124.23
21.052	127.18
21.0622	125.20
21.0724	125.02
21.0825	126.13
21.0927	123.82
21.1029	123.99
21.113	124.68
21.1232	122.55
21.1334	121.41
21.1435	121.46
21.1537	121.33
21.1639	121.28
21.174	120.88
21.1842	121.35
21.1943	120.10
21.2045	119.40
21.2147	119.53
21.2248	117.45
21.235	118.62
21.2452	118.88
21.2553	116.86
21.2655	117.99
21.2757	119.13
21.2858	116.87
21.296	118.53
21.3062	117.23
21.3163	115.12
21.3265	116.70
21.3366	116.82
21.3468	114.60
21.357	116.16
21.3671	116.33
21.3773	115.10
21.3875	116.54
21.3976	116.63
21.4078	114.48
21.418	115.17
21.4281	115.85
21.4383	114.79
21.4485	117.76
21.4586	116.22
21.4688	115.35
21.479	116.21
21.4891	115.38
21.4993	114.84
21.5094	116.43
21.5196	116.67
21.5298	113.68
21.5399	116.51
21.5501	115.65
21.5603	114.19
21.5704	117.12
21.5806	116.40
21.5908	118.85
21.6009	117.91
21.6111	118.43
21.6213	116.38
21.6314	117.77
21.6416	118.78
21.6517	117.52
21.6619	116.99
21.6721	119.48
21.6822	119.09
21.6924	119.13
21.7026	121.38
21.7127	119.35
21.7229	122.87
21.7331	121.79
21.7432	121.79
21.7534	120.98
21.7636	123.84
21.7737	123.05
21.7839	124.71
21.7941	123.87
21.8042	123.84
21.8144	124.18
21.8245	128.43
21.8347	125.39
21.8449	128.85
21.855	127.01
21.8652	125.79
21.8754	128.51
21.8855	129.64
21.8957	128.22
21.9059	131.09
21.916	132.21
21.9262	128.86
21.9364	130.16
21.9465	131.18
21.9567	129.96
21.9668	131.87
21.977	133.66
21.9872	133.98
21.9973	133.56
22.0075	134.60
22.0177	134.30
22.0278	134.95
22.038	134.30
22.0482	136.95
22.0583	137.29
22.0685	138.95
22.0787	137.40
22.0888	140.23
22.099	140.31
22.1092	140.88
22.1193	140.18
22.1295	144.05
22.1396	141.84
22.1498	145.69
22.16	144.96
22.1701	143.43
22.1803	146.77
22.1905	145.82
22.2006	146.48
22.2108	146.84
22.221	149.85
22.2311	146.85
22.2413	149.55
22.2515	149.29
22.2616	150.96
22.2718	151.60
22.2819	152.95
22.2921	152.27
22.3023	153.00
22.3124	154.89
22.3226	150.91
22.3328	152.90
22.3429	154.98
22.3531	153.30
22.3633	154.15
22.3734	157.09
22.3836	153.54
22.3938	155.24
22.4039	157.10
22.4141	154.01
22.4243	155.87
22.4344	156.22
22.4446	155.29
22.4547	156.12
22.4649	156.30
22.4751	154.62
22.4852	155.57
22.4954	156.62
22.5056	152.66
22.5157	153.98
22.5259	154.23
22.5361	153.03
22.5462	155.92
22.5564	155.04
22.5666	152.49
22.5767	153.10
22.5869	151.88
22.597	150.60
22.6072	151.74
22.6174	153.27
22.6275	150.90
22.6377	150.81
22.6479	149.90
22.658	148.07
22.6682	149.12
22.6784	148.02
22.6885	145.28
22.6987	147.71
22.7089	145.16
22.719	144.48
22.7292	144.24
22.7394	147.02
22.7495	141.14
22.7597	143.54
22.7698	141.93
22.78	139.12
22.7902	140.82
22.8003	139.68
22.8105	136.33
22.8207	136.85
22.8308	138.48
22.841	135.99
22.8512	135.84
22.8613	135.52
22.8715	133.84
22.8817	135.02
22.8918	132.95
22.902	130.62
22.9121	133.64
22.9223	130.37
22.9325	128.26
22.9426	129.30
22.9528	127.98
22.963	126.49
22.9731	126.74
22.9833	126.62
22.9935	125.40
23.0036	124.13
23.0138	122.11
23.024	122.81
23.0341	122.32
23.0443	120.04
23.0545	121.23
23.0646	119.96
23.0748	117.66
23.0849	116.17
23.0951	116.67
23.1053	115.59
23.1154	116.91
23.1256	114.08
23.1358	115.93
23.1459	115.37
23.1561	112.16
23.1663	112.05
23.1764	112.74
23.1866	112.34
23.1968	108.23
23.2069	108.79
23.2171	110.68
23.2272	107.69
23.2374	109.00
23.2476	107.09
23.2577	104.63
23.2679	107.05
23.2781	105.31
23.2882	105.90
23.2984	102.71
23.3086	104.66
23.3187	102.29
23.3289	100.68
23.3391	101.71
23.3492	99.99
23.3594	99.14
23.3695	99.37
23.3797	100.28
23.3899	97.78
23.4	97.55
23.4102	97.88
23.4204	97.27
23.4305	96.93
23.4407	95.93
23.4509	94.56
23.461	95.38
23.4712	94.27
23.4814	93.43
23.4915	93.42
23.5017	91.99
23.5119	92.59
23.522	92.32
23.5322	91.81
23.5423	90.32
23.5525	90.38
23.5627	89.70
23.5728	89.24
23.583	88.46
23.5932	88.26
23.6033	88.26
23.6135	86.57
23.6237	87.12
23.6338	86.84
23.644	85.84
23.6542	85.95
23.6643	85.61
23.6745	85.57
23.6846	85.25
23.6948	85.39
23.705	82.89
23.7151	82.79
23.7253	83.65
23.7355	81.45
23.7456	81.40
23.7558	82.46
23.766	82.14
23.7761	81.05
23.7863	80.32
23.7965	81.51
23.8066	80.53
23.8168	79.40
23.827	80.61
23.8371	78.81
23.8473	78.83
23.8574	80.32
23.8676	77.98
23.8778	78.48
23.8879	77.91
23.8981	76.11
23.9083	77.04
23.9184	76.27
23.9286	78.14
23.9388	76.02
23.9489	76.54
23.9591	75.54
23.9693	75.58
23.9794	74.63
23.9896	74.34
23.9997	72.93
24.0099	74.40
24.0201	74.54
24.0302	73.63
24.0404	73.40
24.0506	73.42
24.0607	72.38
24.0709	72.67
24.0811	71.95
24.0912	71.76
24.1014	71.31
24.1116	71.80
24.1217	71.21
24.1319	70.64
24.1421	70.95
24.1522	70.68
24.1624	69.80
24.1725	69.77
24.1827	71.98
24.1929	70.10
24.203	69.40
24.2132	69.87
24.2234	69.04
24.2335	68.76
24.2437	68.26
24.2539	68.55
24.264	68.22
24.2742	67.90
24.2844	67.66
24.2945	67.94
24.3047	67.68
24.3148	66.36
24.325	68.77
24.3352	65.99
24.3453	67.08
24.3555	67.38
24.3657	67.23
24.3758	65.75
24.386	66.59
24.3962	65.68
24.4063	66.11
24.4165	65.54
24.4267	65.91
24.4368	66.35
24.447	65.43
24.4572	64.26
24.4673	65.72
24.4775	64.28
24.4876	64.46
24.4978	64.87
24.508	64.70
24.5181	65.13
24.5283	64.62
24.5385	63.25
24.5486	64.09
24.5588	63.87
24.569	64.35
24.5791	62.93
24.5893	63.76
24.5995	63.73
24.6096	61.68
24.6198	63.29
24.6299	62.41
24.6401	61.97
24.6503	61.79
24.6604	63.70
24.6706	61.21
24.6808	61.97
24.6909	62.02
24.7011	61.86
24.7113	62.56
24.7214	61.50
24.7316	62.11
24.7418	61.62
24.7519	60.90
24.7621	61.19
24.7723	61.65
24.7824	60.90
24.7926	61.97
24.8027	60.68
24.8129	59.91
24.8231	61.65
24.8332	60.78
24.8434	61.12
24.8536	60.17
24.8637	60.00
24.8739	60.75
24.8841	60.23
24.8942	60.62
24.9044	59.67
24.9146	60.68
24.9247	59.78
24.9349	59.84
24.945	58.93
24.9552	60.92
24.9654	58.35
24.9755	60.05
24.9857	59.61
24.9959	59.01
25.006	59.13
25.0162	58.71
25.0264	58.70
25.0365	59.60
25.0467	59.79
25.0569	58.84
25.067	58.31
25.0772	59.91
25.0874	58.45
25.0975	58.24
25.1077	58.94
25.1178	58.16
25.128	59.41
25.1382	59.49
25.1483	58.11
25.1585	57.56
25.1687	58.60
25.1788	58.16
25.189	57.21
25.1992	58.29
25.2093	58.43
25.2195	58.23
25.2297	59.57
25.2398	58.60
25.25	57.30
25.2601	57.58
25.2703	57.32
25.2805	56.52
25.2906	56.90
25.3008	57.02
25.311	56.74
25.3211	57.06
25.3313	56.88
25.3415	56.16
25.3516	56.38
25.3618	57.26
25.372	57.18
25.3821	56.15
25.3923	56.46
25.4024	57.39
25.4126	56.70
25.4228	57.30
25.4329	57.39
25.4431	56.62
25.4533	57.29
25.4634	56.34
25.4736	56.66
25.4838	56.53
25.4939	56.60
25.5041	56.23
25.5143	57.24
25.5244	55.41
25.5346	55.54
25.5448	55.46
25.5549	56.04
25.5651	55.02
25.5752	55.48
25.5854	54.41
25.5956	56.07
25.6057	55.35
25.6159	54.57
25.6261	55.41
25.6362	56.65
25.6464	54.98
25.6566	55.38
25.6667	53.74
25.6769	55.90
25.6871	55.06
25.6972	55.28
25.7074	55.10
25.7175	53.66
25.7277	54.93
25.7379	55.02
25.748	54.17
25.7582	54.25
25.7684	55.16
25.7785	54.68
25.7887	54.75
25.7989	53.95
25.809	55.10
25.8192	54.10
25.8294	53.31
25.8395	53.14
25.8497	54.05
25.8599	54.18
25.87	53.38
25.8802	53.99
25.8903	53.41
25.9005	54.51
25.9107	54.20
25.9208	53.79
25.931	54.00
25.9412	53.84
25.9513	53.12
25.9615	52.66
25.9717	53.02
25.9818	52.98
25.992	54.21
26.0022	53.90
26.0123	54.27
26.0225	52.71
26.0326	53.00
26.0428	53.27
26.053	53.05
26.0631	54.02
26.0733	51.49
26.0835	51.99
26.0936	52.59
26.1038	52.60
26.114	52.53
26.1241	53.19
26.1343	51.42
26.1445	52.29
26.1546	51.87
26.1648	52.96
26.175	51.96
26.1851	52.49
26.1953	51.90
26.2054	50.43
26.2156	51.73
26.2258	52.46
26.2359	52.30
26.2461	51.99
26.2563	50.71
26.2664	51.04
26.2766	51.45
26.2868	50.37
26.2969	51.20
26.3071	51.61
26.3173	51.46
26.3274	51.32
26.3376	50.74
26.3477	52.19
26.3579	51.36
26.3681	51.71
26.3782	51.53
26.3884	51.53
26.3986	50.66
26.4087	51.27
26.4189	51.42
26.4291	50.77
26.4392	50.55
26.4494	51.39
26.4596	51.85
26.4697	50.91
26.4799	49.60
26.4901	51.47
26.5002	50.58
26.5104	51.15
26.5205	50.50
26.5307	50.29
26.5409	51.16
26.551	50.36
26.5612	49.77
26.5714	50.34
26.5815	49.76
26.5917	50.54
26.6019	49.91
26.612	51.06
26.6222	49.87
26.6324	49.91
26.6425	49.48
26.6527	50.43
26.6628	49.77
26.673	50.01
26.6832	49.38
26.6933	49.55
26.7035	49.13
26.7137	49.29
26.7238	49.21
26.734	49.20
26.7442	49.87
26.7543	49.32
26.7645	49.66
26.7747	49.77
26.7848	49.54
26.795	48.87
26.8052	49.93
26.8153	49.41
26.8255	49.41
26.8356	49.41
26.8458	49.17
26.856	50.05
26.8661	48.58
26.8763	48.46
26.8865	48.77
26.8966	48.86
26.9068	49.85
26.917	48.76
26.9271	50.18
26.9373	49.51
26.9475	49.48
26.9576	49.68
26.9678	49.45
26.9779	49.62
26.9881	49.01
26.9983	48.68
27.0084	48.87
27.0186	48.80
27.0288	49.04
27.0389	48.62
27.0491	49.10
27.0593	48.85
27.0694	49.54
27.0796	49.33
27.0898	49.70
27.0999	48.98
27.1101	49.13
27.1202	48.81
27.1304	49.29
27.1406	48.62
27.1507	48.43
27.1609	48.58
27.1711	48.45
27.1812	49.62
27.1914	48.59
27.2016	48.60
27.2117	48.74
27.2219	48.26
27.2321	47.67
27.2422	47.84
27.2524	48.34
27.2626	48.29
27.2727	48.76
27.2829	48.38
27.293	49.17
27.3032	48.10
27.3134	48.59
27.3235	47.75
27.3337	48.34
27.3439	48.03
27.354	48.45
27.3642	48.45
27.3744	48.61
27.3845	49.15
27.3947	48.35
27.4049	48.13
27.415	49.33
27.4252	47.53
27.4353	49.04
27.4455	49.16
27.4557	48.62
27.4658	48.51
27.476	48.79
27.4862	48.91
27.4963	49.46
27.5065	49.60
27.5167	48.66
27.5268	48.90
27.537	49.15
27.5472	49.07
27.5573	49.15
27.5675	47.91
27.5777	50.33
27.5878	48.91
27.598	49.47
27.6081	49.46
27.6183	49.86
27.6285	48.91
27.6386	50.24
27.6488	49.54
27.659	49.46
27.6691	49.26
27.6793	49.68
27.6895	50.29
27.6996	48.97
27.7098	49.96
27.72	50.35
27.7301	50.14
27.7403	50.80
27.7504	50.51
27.7606	51.49
27.7708	51.17
27.7809	51.38
27.7911	51.63
27.8013	50.70
27.8114	50.74
27.8216	50.77
27.8318	51.88
27.8419	52.36
27.8521	51.79
27.8623	52.52
27.8724	53.24
27.8826	53.37
27.8928	54.33
27.9029	53.43
27.9131	53.46
27.9232	53.92
27.9334	53.79
27.9436	53.01
27.9537	54.79
27.9639	52.98
27.9741	53.13
27.9842	55.13
27.9944	53.59
28.0046	55.45
28.0147	54.76
28.0249	55.40
28.0351	54.51
28.0452	55.35
28.0554	56.79
28.0655	56.34
28.0757	57.19
28.0859	55.88
28.096	56.54
28.1062	57.18
28.1164	56.70
28.1265	57.08
28.1367	57.80
28.1469	57.93
28.157	58.45
28.1672	59.38
28.1774	59.80
28.1875	59.08
28.1977	61.04
28.2079	60.41
28.218	59.87
28.2282	60.85
28.2383	60.01
28.2485	58.68
28.2587	60.79
28.2688	61.24
28.279	61.83
28.2892	61.42
28.2993	62.03
28.3095	62.37
28.3197	62.23
28.3298	62.44
28.34	63.86
28.3502	63.38
28.3603	63.95
28.3705	62.84
28.3806	64.33
28.3908	63.99
28.401	63.77
28.4111	64.88
28.4213	65.23
28.4315	64.49
28.4416	64.35
28.4518	66.46
28.462	64.75
28.4721	65.02
28.4823	64.51
28.4925	66.04
28.5026	64.41
28.5128	66.79
28.523	65.30
28.5331	64.82
28.5433	65.83
28.5534	65.46
28.5636	65.63
28.5738	65.21
28.5839	65.17
28.5941	64.90
28.6043	64.10
28.6144	65.99
28.6246	64.13
28.6348	65.23
28.6449	64.72
28.6551	64.58
28.6653	65.18
28.6754	64.50
28.6856	63.77
28.6957	63.48
28.7059	65.22
28.7161	64.15
28.7262	64.10
28.7364	62.77
28.7466	64.31
28.7567	64.50
28.7669	62.99
28.7771	63.60
28.7872	63.37
28.7974	62.48
28.8076	62.15
28.8177	62.73
28.8279	62.16
28.8381	62.51
28.8482	62.09
28.8584	61.12
28.8685	61.20
28.8787	61.21
28.8889	61.18
28.899	59.75
28.9092	59.16
28.9194	60.01
28.9295	60.00
28.9397	59.96
28.9499	59.56
28.96	59.01
28.9702	58.93
28.9804	57.53
28.9905	58.20
29.0007	59.45
29.0108	58.17
29.021	57.20
29.0312	57.44
29.0413	55.52
29.0515	57.20
29.0617	57.40
29.0718	56.69
29.082	57.83
29.0922	55.20
29.1023	55.10
29.1125	55.30
29.1227	55.71
29.1328	55.08
29.143	54.78
29.1531	54.93
29.1633	53.52
29.1735	53.40
29.1836	54.71
29.1938	52.80
29.204	54.02
29.2141	52.77
29.2243	53.91
29.2345	52.70
29.2446	53.05
29.2548	51.20
29.265	52.20
29.2751	51.54
29.2853	51.77
29.2955	50.23
29.3056	51.05
29.3158	50.04
29.3259	50.71
29.3361	50.66
29.3463	50.54
29.3564	50.68
29.3666	50.26
29.3768	48.88
29.3869	50.23
29.3971	49.70
29.4073	49.87
29.4174	49.62
29.4276	49.27
29.4378	48.25
29.4479	47.95
29.4581	48.86
29.4682	48.80
29.4784	49.71
29.4886	48.89
29.4987	48.04
29.5089	47.95
29.5191	47.85
29.5292	46.60
29.5394	47.99
29.5496	47.28
29.5597	46.38
29.5699	47.39
29.5801	46.84
29.5902	45.59
29.6004	47.87
29.6106	46.67
29.6207	46.09
29.6309	46.84
29.641	45.96
29.6512	46.63
29.6614	45.26
29.6715	46.65
29.6817	46.71
29.6919	45.50
29.702	44.77
29.7122	45.96
29.7224	45.07
29.7325	46.20
29.7427	44.74
29.7529	45.68
29.763	45.55
29.7732	43.86
29.7833	45.41
29.7935	44.74
29.8037	44.27
29.8138	43.94
29.824	44.63
29.8342	43.48
29.8443	44.39
29.8545	44.95
29.8647	44.91
29.8748	43.40
29.885	44.50
29.8952	45.05
29.9053	44.40
29.9155	44.51
29.9257	44.13
29.9358	44.05
29.946	44.96
29.9561	44.46
29.9663	44.70
29.9765	44.56
29.9866	43.29
29.9968	43.01
30.007	43.53
30.0171	43.43
30.0273	42.54
30.0375	43.26
30.0476	44.04
30.0578	43.37
30.068	43.99
30.0781	43.11
30.0883	43.15
30.0984	42.76
30.1086	41.70
30.1188	42.99
30.1289	42.99
30.1391	43.04
30.1493	41.65
30.1594	42.95
30.1696	42.48
30.1798	42.91
30.1899	42.28
30.2001	41.87
30.2103	42.22
30.2204	41.76
30.2306	41.76
30.2408	42.29
30.2509	43.04
30.2611	40.76
30.2712	41.54
30.2814	40.85
30.2916	41.77
30.3017	42.18
30.3119	41.82
30.3221	40.68
30.3322	40.59
30.3424	40.14
30.3526	40.37
30.3627	40.80
30.3729	40.48
30.3831	39.34
30.3932	40.45
30.4034	40.27
30.4135	40.10
30.4237	39.18
30.4339	41.33
30.444	39.24
30.4542	40.22
30.4644	39.10
30.4745	38.76
30.4847	39.13
30.4949	39.90
30.505	38.83
30.5152	38.76
30.5254	38.59
30.5355	38.49
30.5457	38.77
30.5559	38.25
30.566	39.48
30.5762	38.14
30.5863	38.46
30.5965	38.24
30.6067	39.02
30.6168	37.76
30.627	37.38
30.6372	37.34
30.6473	38.00
30.6575	37.02
30.6677	38.38
30.6778	37.56
30.688	36.68
30.6982	37.48
30.7083	37.98
30.7185	36.79
30.7286	37.24
30.7388	36.88
30.749	35.77
30.7591	36.93
30.7693	37.27
30.7795	36.29
30.7896	36.44
30.7998	36.29
30.81	36.40
30.8201	35.94
30.8303	36.70
30.8405	35.51
30.8506	35.41
30.8608	37.52
30.871	35.97
30.8811	37.19
30.8913	35.60
30.9014	35.58
30.9116	35.39
30.9218	35.94
30.9319	34.74
30.9421	35.65
30.9523	34.73
30.9624	35.45
30.9726	34.88
30.9828	35.66
30.9929	35.63
31.0031	34.80
31.0133	35.73
31.0234	34.52
31.0336	35.13
31.0437	35.23
31.0539	34.74
31.0641	34.63
31.0742	34.84
31.0844	34.22
31.0946	34.52
31.1047	35.11
31.1149	34.21
31.1251	34.39
31.1352	35.05
31.1454	33.88
31.1556	34.98
31.1657	35.37
31.1759	34.04
31.186	35.32
31.1962	34.39
31.2064	34.89
31.2165	33.90
31.2267	35.20
31.2369	33.90
31.247	33.34
31.2572	33.67
31.2674	34.24
31.2775	34.15
31.2877	34.02
31.2979	33.96
31.308	34.56
31.3182	33.78
31.3284	33.38
31.3385	34.40
31.3487	34.20
31.3588	33.48
31.369	33.38
31.3792	34.28
31.3893	33.99
31.3995	33.96
31.4097	34.29
31.4198	33.82
31.43	33.26
31.4402	33.98
31.4503	33.64
31.4605	32.99
31.4707	33.78
31.4808	33.17
31.491	32.43
31.5011	33.06
31.5113	33.00
31.5215	32.96
31.5316	33.49
31.5418	33.15
31.552	33.46
31.5621	34.38
31.5723	33.69
31.5825	32.95
31.5926	32.85
31.6028	33.35
31.613	33.48
31.6231	33.36
31.6333	32.68
31.6435	33.09
31.6536	33.15
31.6638	33.27
31.6739	33.27
31.6841	32.23
31.6943	32.63
31.7044	32.99
31.7146	33.09
31.7248	32.75
31.7349	32.59
31.7451	32.23
31.7553	32.68
31.7654	33.04
31.7756	33.70
31.7858	33.36
31.7959	32.41
31.8061	33.71
31.8162	32.66
31.8264	32.57
31.8366	33.65
31.8467	32.50
31.8569	32.73
31.8671	32.88
31.8772	32.16
31.8874	32.39
31.8976	32.99
31.9077	32.95
31.9179	32.24
31.9281	33.10
31.9382	31.43
31.9484	32.85
31.9586	32.52
31.9687	33.04
31.9789	32.17
31.989	32.27
31.9992	32.41
32.0094	32.57
32.0195	32.10
32.0297	32.70
32.0399	32.54
32.05	33.77
32.0602	32.54
32.0704	33.12
32.0805	32.75
32.0907	32.56
32.1009	33.47
32.111	32.59
32.1212	33.20
32.1313	32.65
32.1415	32.76
32.1517	31.38
32.1618	32.96
32.172	32.94
32.1822	32.05
32.1923	32.29
32.2025	31.77
32.2127	32.30
32.2228	31.86
32.233	33.00
32.2432	30.81
32.2533	32.32
32.2635	33.21
32.2737	33.07
32.2838	32.93
32.294	32.58
32.3041	32.48
32.3143	32.15
32.3245	33.32
32.3346	31.84
32.3448	32.31
32.355	33.38
32.3651	32.41
32.3753	32.31
32.3855	32.15
32.3956	32.26
32.4058	33.04
32.416	32.67
32.4261	31.87
32.4363	32.94
32.4464	32.20
32.4566	32.40
32.4668	32.66
32.4769	32.71
32.4871	32.58
32.4973	32.41
32.5074	32.32
32.5176	32.25
32.5278	32.18
32.5379	32.48
32.5481	32.27
32.5583	31.88
32.5684	32.84
32.5786	32.23
32.5888	31.95
32.5989	31.68
32.6091	32.21
32.6192	31.64
32.6294	32.54
32.6396	32.43
32.6497	32.15
32.6599	32.55
32.6701	32.00
32.6802	32.58
32.6904	32.85
32.7006	32.77
32.7107	31.99
32.7209	32.32
32.7311	31.95
32.7412	33.00
32.7514	32.37
32.7615	31.95
32.7717	32.45
32.7819	32.93
32.792	32.80
32.8022	32.82
32.8124	33.64
32.8225	32.62
32.8327	32.70
32.8429	33.17
32.853	31.57
32.8632	31.97
32.8734	32.28
32.8835	33.29
32.8937	31.51
32.9039	32.25
32.914	32.56
32.9242	32.37
32.9343	31.99
32.9445	32.86
32.9547	32.60
32.9648	32.52
32.975	33.05
32.9852	32.87
32.9953	32.87
33.0055	32.27
33.0157	32.15
33.0258	32.50
33.036	32.26
33.0462	32.97
33.0563	33.50
33.0665	32.45
33.0766	31.84
33.0868	33.17
33.097	32.70
33.1071	33.00
33.1173	32.98
33.1275	34.01
33.1376	32.17
33.1478	33.16
33.158	32.77
33.1681	33.19
33.1783	33.34
33.1885	33.04
33.1986	33.10
33.2088	33.87
33.2189	33.55
33.2291	32.84
33.2393	33.19
33.2494	33.34
33.2596	33.05
33.2698	33.18
33.2799	33.60
33.2901	33.62
33.3003	33.62
33.3104	33.10
33.3206	33.47
33.3308	32.64
33.3409	33.57
33.3511	33.83
33.3613	33.37
33.3714	33.76
33.3816	32.85
33.3917	33.59
33.4019	32.75
33.4121	33.91
33.4222	32.51
33.4324	32.11
33.4426	32.93
33.4527	32.72
33.4629	33.38
33.4731	33.44
33.4832	33.49
33.4934	33.55
33.5036	32.79
33.5137	32.79
33.5239	31.84
33.534	31.80
33.5442	32.82
33.5544	31.71
33.5645	32.70
33.5747	32.15
33.5849	32.38
33.595	32.10
33.6052	32.40
33.6154	31.99
33.6255	31.73
33.6357	31.29
33.6459	31.68
33.656	31.65
33.6662	31.76
33.6764	31.46
33.6865	32.03
33.6967	31.13
33.7068	30.84
33.717	30.85
33.7272	31.12
33.7373	30.69
33.7475	31.05
33.7577	30.62
33.7678	29.66
33.778	30.67
33.7882	30.42
33.7983	30.34
33.8085	29.84
33.8187	29.90
33.8288	30.40
33.839	30.78
33.8491	29.72
33.8593	29.99
33.8695	30.37
33.8796	30.27
33.8898	29.67
33.9	29.68
33.9101	29.25
33.9203	29.66
33.9305	28.54
33.9406	29.18
33.9508	29.48
33.961	28.47
33.9711	29.01
33.9813	29.23
33.9915	28.70
34.0016	29.89
34.0118	28.64
34.0219	28.54
34.0321	27.85
34.0423	28.61
34.0524	28.22
34.0626	28.22
34.0728	28.70
34.0829	28.70
34.0931	28.71
34.1033	27.85
34.1134	28.47
34.1236	28.02
34.1338	28.87
34.1439	28.10
34.1541	27.29
34.1642	27.66
34.1744	27.71
34.1846	27.85
34.1947	27.93
34.2049	27.96
34.2151	27.43
34.2252	27.46
34.2354	26.66
34.2456	27.65
34.2557	28.36
34.2659	27.11
34.2761	27.53
34.2862	27.49
34.2964	27.63
34.3066	27.50
34.3167	27.07
34.3269	26.73
34.337	27.24
34.3472	27.20
34.3574	27.42
34.3675	27.55
34.3777	27.17
34.3879	27.06
34.398	26.99
34.4082	26.46
34.4184	27.01
34.4285	26.96
34.4387	27.20
34.4489	27.24
34.459	26.70
34.4692	26.24
34.4793	26.87
34.4895	27.32
34.4997	27.05
34.5098	27.18
34.52	26.17
34.5302	26.48
34.5403	26.31
34.5505	26.66
34.5607	26.63
34.5708	25.58
34.581	26.69
34.5912	25.98
34.6013	26.41
34.6115	25.79
34.6217	26.18
34.6318	26.22
34.642	25.90
34.6521	26.37
34.6623	26.38
34.6725	26.61
34.6826	25.99
34.6928	26.70
34.703	25.80
34.7131	26.34
34.7233	26.32
34.7335	26.14
34.7436	26.45
34.7538	26.43
34.764	26.71
34.7741	26.01
34.7843	25.90
34.7944	26.32
34.8046	26.57
34.8148	26.77
34.8249	25.74
34.8351	25.82
34.8453	25.43
34.8554	26.71
34.8656	25.63
34.8758	25.35
34.8859	25.43
34.8961	26.53
34.9063	25.34
34.9164	25.40
34.9266	26.25
34.9367	25.84
34.9469	26.02
34.9571	26.87
34.9672	26.55
34.9774	26.40
34.9876	26.82
34.9977	25.43
35.0079	25.80
35.0181	26.04
35.0282	25.80
35.0384	25.80
35.0486	25.87
35.0587	26.55
35.0689	25.57
35.0791	25.64
35.0892	26.12
35.0994	25.68
35.1095	25.36
35.1197	25.49
35.1299	25.21
35.14	25.52
35.1502	24.90
35.1604	24.98
35.1705	25.77
35.1807	25.59
35.1909	25.86
35.201	25.56
35.2112	25.26
35.2214	24.90
35.2315	26.13
35.2417	25.49
35.2518	25.42
35.262	25.70
35.2722	25.34
35.2823	25.26
35.2925	26.13
35.3027	25.12
35.3128	25.16
35.323	25.75
35.3332	24.96
35.3433	25.11
35.3535	25.04
35.3637	25.05
35.3738	25.32
35.384	25.30
35.3942	25.91
35.4043	24.88
35.4145	25.14
35.4246	25.15
35.4348	25.05
35.445	25.94
35.4551	25.21
35.4653	25.77
35.4755	24.99
35.4856	25.12
35.4958	25.37
35.506	24.87
35.5161	25.46
35.5263	24.41
35.5365	25.32
35.5466	24.93
35.5568	25.94
35.5669	24.93
35.5771	24.63
35.5873	25.23
35.5974	24.34
35.6076	24.21
35.6178	24.88
35.6279	25.06
35.6381	24.98
35.6483	25.15
35.6584	24.69
35.6686	24.59
35.6788	25.45
35.6889	25.15
35.6991	24.80
35.7093	25.24
35.7194	25.16
35.7296	24.13
35.7397	24.81
35.7499	24.61
35.7601	25.11
35.7702	24.48
35.7804	24.76
35.7906	24.64
35.8007	24.55
35.8109	24.68
35.8211	24.78
35.8312	24.74
35.8414	24.15
35.8516	24.96
35.8617	24.97
35.8719	24.96
35.882	24.93
35.8922	24.77
35.9024	24.29
35.9125	25.79
35.9227	24.59
35.9329	24.05
35.943	25.70
35.9532	24.42
35.9634	24.01
35.9735	24.37
35.9837	24.60
35.9939	25.04
36.004	24.79
36.0142	24.73
36.0244	25.05
36.0345	24.19
36.0447	24.73
36.0548	24.12
36.065	25.53
36.0752	24.16
36.0853	24.35
36.0955	24.38
36.1057	23.85
36.1158	25.35
36.126	24.52
36.1362	24.73
36.1463	24.37
36.1565	24.78
36.1667	24.28
36.1768	24.60
36.187	24.23
36.1971	24.65
36.2073	25.03
36.2175	24.66
36.2276	24.74
36.2378	24.79
36.248	24.70
36.2581	25.12
36.2683	24.58
36.2785	25.08
36.2886	24.64
36.2988	25.18
36.309	24.21
36.3191	24.60
36.3293	24.21
36.3395	25.16
36.3496	24.02
36.3598	25.63
36.3699	24.55
36.3801	24.52
36.3903	25.10
36.4004	24.46
36.4106	24.87
36.4208	24.72
36.4309	23.82
36.4411	24.12
36.4513	25.13
36.4614	25.43
36.4716	24.60
36.4818	24.90
36.4919	24.84
36.5021	24.69
36.5122	24.21
36.5224	24.49
36.5326	24.27
36.5427	24.19
36.5529	24.54
36.5631	24.49
36.5732	24.66
36.5834	23.82
36.5936	25.18
36.6037	24.52
36.6139	24.71
36.6241	24.70
36.6342	24.48
36.6444	24.65
36.6546	24.85
36.6647	23.91
36.6749	24.45
36.685	24.34
36.6952	24.62
36.7054	24.86
36.7155	24.61
36.7257	24.95
36.7359	25.14
36.746	24.52
36.7562	25.26
36.7664	24.89
36.7765	24.93
36.7867	24.74
36.7969	25.45
36.807	24.08
36.8172	25.40
36.8273	24.27
36.8375	24.53
36.8477	24.45
36.8578	24.69
36.868	25.60
36.8782	24.67
36.8883	25.12
36.8985	25.27
36.9087	25.05
36.9188	24.54
36.929	24.65
36.9392	24.98
36.9493	24.70
36.9595	25.16
36.9696	24.60
36.9798	25.38
36.99	24.72
37.0001	25.34
37.0103	25.00
37.0205	25.29
37.0306	24.92
37.0408	25.14
37.051	25.04
37.0611	25.12
37.0713	25.23
37.0815	24.80
37.0916	25.43
37.1018	25.11
37.112	25.48
37.1221	25.18
37.1323	25.45
37.1424	25.17
37.1526	24.63
37.1628	25.48
37.1729	25.76
37.1831	25.92
37.1933	25.36
37.2034	24.76
37.2136	24.97
37.2238	25.24
37.2339	24.81
37.2441	25.98
37.2543	25.36
37.2644	26.37
37.2746	25.59
37.2847	25.17
37.2949	25.23
37.3051	25.07
37.3152	26.34
37.3254	25.10
37.3356	25.65
37.3457	25.58
37.3559	26.39
37.3661	25.91
37.3762	26.16
37.3864	26.04
37.3966	26.28
37.4067	25.86
37.4169	25.51
37.4271	26.09
37.4372	26.54
37.4474	26.20
37.4575	25.66
37.4677	25.98
37.4779	26.12
37.488	26.14
37.4982	25.66
37.5084	26.49
37.5185	26.02
37.5287	25.83
37.5389	25.89
37.549	26.57
37.5592	26.45
37.5694	26.61
37.5795	26.57
37.5897	26.81
37.5998	27.16
37.61	26.61
37.6202	26.63
37.6303	27.01
37.6405	25.56
37.6507	26.83
37.6608	27.29
37.671	26.66
37.6812	25.95
37.6913	26.68
37.7015	26.49
37.7117	26.66
37.7218	26.16
37.732	26.39
37.7422	26.18
37.7523	26.97
37.7625	27.57
37.7726	26.82
37.7828	27.49
37.793	27.41
37.8031	27.14
37.8133	26.74
37.8235	26.86
37.8336	27.16
37.8438	26.69
37.854	27.03
37.8641	27.13
37.8743	27.97
37.8845	26.66
37.8946	26.59
37.9048	27.43
37.9149	28.20
37.9251	27.93
37.9353	28.22
37.9454	28.88
37.9556	28.69
37.9658	28.73
37.9759	27.93
37.9861	27.73
37.9963	28.29
38.0064	28.22
38.0166	27.88
38.0268	28.42
38.0369	27.66
38.0471	27.75
38.0573	28.14
38.0674	27.21
38.0776	28.29
38.0877	28.20
38.0979	28.48
38.1081	27.51
38.1182	27.76
38.1284	28.48
38.1386	28.22
38.1487	28.35
38.1589	28.18
38.1691	28.09
38.1792	28.80
38.1894	28.05
38.1996	27.98
38.2097	27.82
38.2199	28.68
38.23	28.74
38.2402	28.45
38.2504	28.21
38.2605	28.56
38.2707	28.45
38.2809	28.96
38.291	28.91
38.3012	28.51
38.3114	29.19
38.3215	28.90
38.3317	28.80
38.3419	28.52
38.352	29.76
38.3622	29.38
38.3724	28.99
38.3825	29.10
38.3927	29.01
38.4028	29.01
38.413	29.20
38.4232	29.26
38.4333	28.96
38.4435	28.63
38.4537	28.95
38.4638	29.46
38.474	29.18
38.4842	29.12
38.4943	29.25
38.5045	29.24
38.5147	28.63
38.5248	29.36
38.535	29.72
38.5451	28.92
38.5553	28.66
38.5655	29.38
38.5756	28.43
38.5858	29.12
38.596	29.09
38.6061	29.70
38.6163	28.87
38.6265	28.84
38.6366	29.19
38.6468	28.66
38.657	29.55
38.6671	28.59
38.6773	28.55
38.6875	28.93
38.6976	29.57
38.7078	29.06
38.7179	28.90
38.7281	28.90
38.7383	29.60
38.7484	30.15
38.7586	28.76
38.7688	30.26
38.7789	29.02
38.7891	28.79
38.7993	29.25
38.8094	28.86
38.8196	28.96
38.8298	28.77
38.8399	28.77
38.8501	29.81
38.8602	28.92
38.8704	28.78
38.8806	29.21
38.8907	28.71
38.9009	28.66
38.9111	29.41
38.9212	28.47
38.9314	29.58
38.9416	28.57
38.9517	28.77
38.9619	28.58
38.9721	29.16
38.9822	28.90
38.9924	28.57
39.0025	28.54
39.0127	29.01
39.0229	28.48
39.033	29.14
39.0432	28.71
39.0534	28.86
39.0635	28.25
39.0737	27.73
39.0839	28.34
39.094	28.54
39.1042	28.38
39.1144	28.17
39.1245	29.05
39.1347	28.46
39.1449	28.04
39.155	27.88
39.1652	27.76
39.1753	28.86
39.1855	27.46
39.1957	28.39
39.2058	27.84
39.216	27.65
39.2262	27.80
39.2363	27.82
39.2465	28.45
39.2567	28.02
39.2668	28.37
39.277	28.35
39.2872	27.26
39.2973	27.68
39.3075	26.99
39.3176	27.70
39.3278	27.20
39.338	27.10
39.3481	27.48
39.3583	27.68
39.3685	26.66
39.3786	27.87
39.3888	27.57
39.399	27.36
39.4091	27.53
39.4193	26.79
39.4295	27.44
39.4396	26.84
39.4498	26.74
39.46	27.67
39.4701	26.43
39.4803	26.59
39.4904	27.07
39.5006	26.34
39.5108	26.31
39.5209	27.23
39.5311	26.66
39.5413	26.65
39.5514	26.74
39.5616	26.16
39.5718	26.62
39.5819	25.80
39.5921	26.73
39.6023	25.63
39.6124	26.50
39.6226	26.29
39.6327	26.41
39.6429	26.47
39.6531	26.12
39.6632	26.53
39.6734	25.82
39.6836	27.02
39.6937	26.49
39.7039	26.44
39.7141	26.54
39.7242	26.41
39.7344	25.60
39.7446	26.52
39.7547	25.99
39.7649	25.80
39.7751	25.87
39.7852	25.81
39.7954	25.63
39.8055	26.20
39.8157	26.02
39.8259	26.21
39.836	25.77
39.8462	25.77
39.8564	26.70
39.8665	25.88
39.8767	24.96
39.8869	25.71
39.897	25.27
39.9072	26.20
39.9174	25.26
39.9275	25.01
39.9377	25.89
39.9478	25.66
39.958	25.59
39.9682	24.68
39.9783	25.36
39.9885	25.60
39.9987	25.80
