5.0023	48.63
5.0125	48.57
5.0226	49.53
5.0328	46.91
5.043	47.05
5.0531	46.48
5.0633	45.49
5.0735	46.29
5.0836	43.99
5.0938	44.68
5.1039	44.47
5.1141	42.45
5.1243	42.15
5.1344	41.52
5.1446	41.41
5.1548	41.55
5.1649	41.62
5.1751	40.04
5.1853	39.31
5.1954	39.36
5.2056	38.48
5.2158	37.82
5.2259	38.05
5.2361	38.08
5.2462	37.05
5.2564	36.78
5.2666	36.05
5.2767	35.20
5.2869	36.24
5.2971	34.67
5.3072	35.22
5.3174	34.02
5.3276	34.48
5.3377	33.88
5.3479	32.74
5.3581	32.18
5.3682	31.24
5.3784	32.49
5.3886	32.32
5.3987	31.14
5.4089	31.98
5.419	31.34
5.4292	31.20
5.4394	31.23
5.4495	30.41
5.4597	29.81
5.4699	29.77
5.48	30.11
5.4902	30.01
5.5004	29.43
5.5105	28.26
5.5207	27.93
5.5309	27.63
5.541	27.49
5.5512	28.73
5.5613	27.62
5.5715	28.01
5.5817	27.31
5.5918	27.01
5.602	27.24
5.6122	25.88
5.6223	26.65
5.6325	26.13
5.6427	25.76
5.6528	26.32
5.663	25.98
5.6732	25.23
5.6833	25.35
5.6935	24.80
5.7036	25.41
5.7138	25.50
5.724	24.87
5.7341	25.20
5.7443	24.79
5.7545	25.07
5.7646	24.09
5.7748	24.46
5.785	24.79
5.7951	23.95
5.8053	24.44
5.8155	24.33
5.8256	24.07
5.8358	24.33
5.846	25.07
5.8561	24.17
5.8663	24.60
5.8764	24.52
5.8866	24.21
5.8968	23.75
5.9069	24.57
5.9171	24.48
5.9273	24.53
5.9374	24.27
5.9476	24.48
5.9578	23.32
5.9679	24.33
5.9781	24.11
5.9883	24.05
5.9984	23.31
6.0086	23.76
6.0187	23.74
6.0289	23.73
6.0391	23.46
6.0492	23.26
6.0594	23.18
6.0696	24.27
6.0797	23.07
6.0899	24.08
6.1001	23.77
6.1102	23.50
6.1204	23.14
6.1306	22.86
6.1407	23.30
6.1509	23.25
6.1611	23.20
6.1712	22.66
6.1814	22.31
6.1915	22.59
6.2017	23.25
6.2119	23.48
6.222	23.17
6.2322	23.14
6.2424	23.69
6.2525	23.43
6.2627	23.23
6.2729	22.70
6.283	23.22
6.2932	22.64
6.3034	23.04
6.3135	23.26
6.3237	23.34
6.3338	22.91
6.344	22.59
6.3542	23.65
6.3643	22.83
6.3745	22.65
6.3847	23.20
6.3948	22.79
6.405	23.23
6.4152	23.37
6.4253	22.83
6.4355	23.57
6.4457	23.13
6.4558	22.65
6.466	22.92
6.4762	22.84
6.4863	23.04
6.4965	23.48
6.5066	22.54
6.5168	22.93
6.527	24.30
6.5371	22.40
6.5473	22.93
6.5575	22.86
6.5676	22.98
6.5778	23.27
6.588	23.02
6.5981	22.87
6.6083	23.59
6.6185	23.30
6.6286	23.37
6.6388	22.79
6.6489	23.09
6.6591	23.85
6.6693	23.26
6.6794	23.59
6.6896	23.72
6.6998	23.12
6.7099	23.04
6.7201	23.78
6.7303	23.38
6.7404	23.51
6.7506	23.49
6.7608	23.65
6.7709	23.07
6.7811	23.62
6.7913	23.73
6.8014	23.67
6.8116	23.31
6.8217	23.76
6.8319	24.37
6.8421	23.00
6.8522	23.74
6.8624	24.23
6.8726	23.66
6.8827	23.21
6.8929	23.60
6.9031	24.07
6.9132	23.25
6.9234	24.33
6.9336	24.13
6.9437	23.27
6.9539	24.57
6.964	24.45
6.9742	24.69
6.9844	24.88
6.9945	24.58
7.0047	23.18
7.0149	23.68
7.025	24.85
7.0352	23.61
7.0454	24.00
7.0555	24.54
7.0657	24.55
7.0759	24.69
7.086	23.62
7.0962	24.71
7.1064	23.55
7.1165	23.76
7.1267	23.62
7.1368	23.79
7.147	23.91
7.1572	24.25
7.1673	23.49
7.1775	23.97
7.1877	24.76
7.1978	24.79
7.208	24.02
7.2182	23.66
7.2283	24.37
7.2385	24.68
7.2487	24.57
7.2588	24.72
7.269	25.13
7.2791	24.40
7.2893	23.97
7.2995	23.97
7.3096	24.35
7.3198	24.96
7.33	23.98
7.3401	24.17
7.3503	25.38
7.3605	24.68
7.3706	24.14
7.3808	24.42
7.391	24.70
7.4011	24.42
7.4113	24.44
7.4215	23.91
7.4316	24.85
7.4418	24.87
7.4519	24.10
7.4621	25.57
7.4723	24.32
7.4824	23.88
7.4926	25.12
7.5028	24.68
7.5129	24.74
7.5231	25.25
7.5333	25.70
7.5434	24.88
7.5536	25.48
7.5638	25.12
7.5739	24.91
7.5841	25.45
7.5942	25.20
7.6044	24.80
7.6146	25.30
7.6247	24.62
7.6349	25.30
7.6451	24.80
7.6552	24.63
7.6654	25.76
7.6756	25.38
7.6857	24.37
7.6959	24.96
7.7061	25.78
7.7162	25.41
7.7264	25.38
7.7365	26.24
7.7467	26.30
7.7569	25.12
7.767	25.18
7.7772	25.35
7.7874	25.15
7.7975	25.47
7.8077	26.24
7.8179	25.77
7.828	25.59
7.8382	24.80
7.8484	24.74
7.8585	25.49
7.8687	25.57
7.8789	25.63
7.889	25.90
7.8992	25.79
7.9093	25.70
7.9195	27.01
7.9297	25.62
7.9398	26.37
7.95	25.64
7.9602	25.90
7.9703	25.89
7.9805	26.46
7.9907	26.55
8.0008	26.26
8.011	25.84
8.0212	26.35
8.0313	25.73
8.0415	26.10
8.0516	25.95
8.0618	25.96
8.072	25.90
8.0821	25.60
8.0923	26.87
8.1025	27.20
8.1126	25.97
8.1228	26.54
8.133	25.65
8.1431	25.99
8.1533	26.02
8.1635	26.30
8.1736	27.10
8.1838	25.86
8.194	26.48
8.2041	26.03
8.2143	25.73
8.2244	27.20
8.2346	26.42
8.2448	26.98
8.2549	26.61
8.2651	26.66
8.2753	26.17
8.2854	26.30
8.2956	26.26
8.3058	26.62
8.3159	27.15
8.3261	26.69
8.3363	26.19
8.3464	26.83
8.3566	25.95
8.3667	26.31
8.3769	27.24
8.3871	26.93
8.3972	27.05
8.4074	27.26
8.4176	26.84
8.4277	26.82
8.4379	27.23
8.4481	27.01
8.4582	27.29
8.4684	27.90
8.4786	27.47
8.4887	27.59
8.4989	26.93
8.5091	27.55
8.5192	27.62
8.5294	27.72
8.5395	27.57
8.5497	27.35
8.5599	27.59
8.57	27.28
8.5802	27.14
8.5904	27.62
8.6005	27.12
8.6107	28.23
8.6209	28.04
8.631	27.75
8.6412	27.32
8.6514	27.70
8.6615	27.23
8.6717	27.09
8.6818	28.23
8.692	27.68
8.7022	28.55
8.7123	27.62
8.7225	27.82
8.7327	27.24
8.7428	27.75
8.753	28.55
8.7632	27.25
8.7733	27.95
8.7835	29.27
8.7937	28.05
8.8038	28.30
8.814	28.20
8.8242	27.92
8.8343	28.28
8.8445	27.87
8.8546	27.43
8.8648	28.78
8.875	28.09
8.8851	28.93
8.8953	27.21
8.9055	28.46
8.9156	28.51
8.9258	27.82
8.936	27.82
8.9461	27.93
8.9563	27.98
8.9665	28.07
8.9766	27.49
8.9868	28.75
8.9969	28.68
9.0071	27.64
9.0173	28.57
9.0274	28.84
9.0376	27.87
9.0478	28.44
9.0579	28.71
9.0681	27.85
9.0783	28.71
9.0884	28.85
9.0986	27.95
9.1088	29.50
9.1189	28.77
9.1291	28.22
9.1393	27.52
9.1494	29.01
9.1596	28.32
9.1697	28.88
9.1799	29.18
9.1901	28.87
9.2002	29.22
9.2104	29.01
9.2206	28.24
9.2307	28.09
9.2409	29.74
9.2511	28.77
9.2612	29.20
9.2714	29.23
9.2816	28.88
9.2917	29.46
9.3019	28.49
9.312	28.57
9.3222	28.80
9.3324	29.26
9.3425	27.55
9.3527	29.30
9.3629	28.76
9.373	28.70
9.3832	29.14
9.3934	29.23
9.4035	29.20
9.4137	30.22
9.4239	29.59
9.434	28.68
9.4442	29.48
9.4544	29.02
9.4645	29.24
9.4747	29.73
9.4848	29.47
9.495	28.84
9.5052	29.72
9.5153	28.84
9.5255	29.57
9.5357	30.37
9.5458	29.65
9.556	30.13
9.5662	28.83
9.5763	29.85
9.5865	29.86
9.5967	29.80
9.6068	30.38
9.617	30.59
9.6271	29.82
9.6373	29.49
9.6475	29.63
9.6576	30.08
9.6678	30.15
9.678	29.27
9.6881	29.43
9.6983	29.80
9.7085	29.61
9.7186	29.68
9.7288	30.35
9.739	30.65
9.7491	30.30
9.7593	30.08
9.7694	30.24
9.7796	30.00
9.7898	30.35
9.7999	30.75
9.8101	29.77
9.8203	29.82
9.8304	30.51
9.8406	30.26
9.8508	30.34
9.8609	30.67
9.8711	30.34
9.8813	30.98
9.8914	30.32
9.9016	30.23
9.9118	30.43
9.9219	30.07
9.9321	31.19
9.9422	30.80
9.9524	30.91
9.9626	31.05
9.9727	30.34
9.9829	30.37
9.9931	31.19
10.0032	30.91
10.0134	30.62
10.0236	30.95
10.0337	31.05
10.0439	30.54
10.0541	30.88
10.0642	30.40
10.0744	30.79
10.0845	30.93
10.0947	31.20
10.1049	31.04
10.115	31.14
10.1252	30.07
10.1354	31.30
10.1455	31.99
10.1557	30.69
10.1659	30.55
10.176	31.57
10.1862	31.43
10.1964	31.20
10.2065	31.14
10.2167	31.51
10.2269	30.63
10.237	30.98
10.2472	32.47
10.2573	30.77
10.2675	31.49
10.2777	31.70
10.2878	31.51
10.298	30.68
10.3082	31.40
10.3183	31.49
10.3285	31.90
10.3387	31.27
10.3488	31.55
10.359	32.34
10.3692	30.98
10.3793	31.43
10.3895	32.03
10.3996	31.42
10.4098	32.07
10.42	31.31
10.4301	31.02
10.4403	32.10
10.4505	32.52
10.4606	32.11
10.4708	30.91
10.481	31.62
10.4911	32.02
10.5013	31.43
10.5115	32.77
10.5216	32.07
10.5318	32.77
10.542	32.71
10.5521	32.46
10.5623	31.91
10.5724	31.93
10.5826	32.29
10.5928	31.91
10.6029	33.06
10.6131	31.22
10.6233	31.57
10.6334	31.71
10.6436	32.47
10.6538	31.52
10.6639	32.49
10.6741	31.63
10.6843	31.89
10.6944	33.05
10.7046	32.27
10.7147	32.15
10.7249	32.71
10.7351	31.65
10.7452	32.11
10.7554	32.27
10.7656	31.84
10.7757	32.47
10.7859	32.57
10.7961	31.57
10.8062	31.91
10.8164	32.52
10.8266	32.97
10.8367	32.68
10.8469	32.63
10.8571	33.45
10.8672	33.10
10.8774	32.70
10.8875	33.69
10.8977	33.48
10.9079	33.48
10.918	33.36
10.9282	33.20
10.9384	33.39
10.9485	33.07
10.9587	33.14
10.9689	32.89
10.979	32.91
10.9892	32.79
10.9994	33.42
11.0095	33.33
11.0197	32.77
11.0298	33.72
11.04	33.10
11.0502	33.16
11.0603	33.35
11.0705	33.12
11.0807	33.04
11.0908	33.20
11.101	34.26
11.1112	33.65
11.1213	32.98
11.1315	34.00
11.1417	34.12
11.1518	33.40
11.162	34.10
11.1722	34.35
11.1823	33.97
11.1925	34.10
11.2026	34.37
11.2128	34.52
11.223	33.28
11.2331	34.07
11.2433	33.81
11.2535	34.16
11.2636	33.83
11.2738	34.59
11.284	33.87
11.2941	33.82
11.3043	34.37
11.3145	33.52
11.3246	33.74
11.3348	34.04
11.3449	33.88
11.3551	34.40
11.3653	33.61
11.3754	34.22
11.3856	34.16
11.3958	33.99
11.4059	34.91
11.4161	34.79
11.4263	35.68
11.4364	35.18
11.4466	34.65
11.4568	34.05
11.4669	35.20
11.4771	34.55
11.4873	35.12
11.4974	34.74
11.5076	33.64
11.5177	34.52
11.5279	35.44
11.5381	34.36
11.5482	35.77
11.5584	34.34
11.5686	34.91
11.5787	34.34
11.5889	35.20
11.5991	35.14
11.6092	35.34
11.6194	35.08
11.6296	35.16
11.6397	35.06
11.6499	35.37
11.66	35.15
11.6702	34.92
11.6804	35.30
11.6905	35.98
11.7007	35.44
11.7109	34.57
11.721	35.62
11.7312	36.18
11.7414	35.87
11.7515	35.63
11.7617	36.29
11.7719	35.62
11.782	35.91
11.7922	36.38
11.8023	36.45
11.8125	36.10
11.8227	35.46
11.8328	34.57
11.843	35.51
11.8532	35.87
11.8633	35.20
11.8735	35.66
11.8837	35.99
11.8938	36.46
11.904	37.25
11.9142	37.30
11.9243	36.37
11.9345	36.46
11.9447	36.62
11.9548	36.53
11.965	35.87
11.9751	36.32
11.9853	37.38
11.9955	35.95
12.0056	35.40
12.0158	36.62
12.026	37.77
12.0361	36.41
12.0463	35.85
12.0565	36.26
12.0666	35.87
12.0768	37.83
12.087	36.04
12.0971	37.23
12.1073	37.30
12.1174	37.51
12.1276	37.41
12.1378	36.08
12.1479	37.91
12.1581	37.17
12.1683	36.98
12.1784	37.29
12.1886	37.50
12.1988	38.26
12.2089	38.93
12.2191	36.91
12.2293	38.17
12.2394	37.85
12.2496	38.38
12.2598	37.55
12.2699	37.38
12.2801	38.41
12.2902	37.87
12.3004	37.86
12.3106	36.96
12.3207	37.71
12.3309	38.11
12.3411	37.80
12.3512	39.08
12.3614	38.49
12.3716	37.35
12.3817	38.18
12.3919	39.18
12.4021	38.18
12.4122	38.95
12.4224	38.57
12.4325	39.12
12.4427	39.13
12.4529	38.40
12.463	38.97
12.4732	39.41
12.4834	40.37
12.4935	39.67
12.5037	38.15
12.5139	39.12
12.524	38.83
12.5342	38.95
12.5444	39.41
12.5545	38.57
12.5647	39.63
12.5749	39.04
12.585	39.64
12.5952	39.31
12.6053	39.15
12.6155	39.90
12.6257	39.60
12.6358	38.65
12.646	39.46
12.6562	40.06
12.6663	38.88
12.6765	40.16
12.6867	40.38
12.6968	39.85
12.707	39.92
12.7172	39.71
12.7273	40.26
12.7375	40.09
12.7476	40.53
12.7578	40.15
12.768	40.03
12.7781	39.82
12.7883	39.98
12.7985	39.87
12.8086	40.00
12.8188	40.96
12.829	40.93
12.8391	40.74
12.8493	42.01
12.8595	40.08
12.8696	40.11
12.8798	40.54
12.89	40.33
12.9001	40.66
12.9103	41.12
12.9204	40.02
12.9306	40.27
12.9408	41.18
12.9509	40.53
12.9611	40.60
12.9713	40.75
12.9814	41.95
12.9916	41.44
13.0018	41.87
13.0119	42.13
13.0221	42.24
13.0323	41.65
13.0424	42.71
13.0526	41.51
13.0627	42.81
13.0729	42.20
13.0831	42.80
13.0932	42.52
13.1034	42.64
13.1136	43.51
13.1237	42.77
13.1339	42.38
13.1441	42.60
13.1542	42.52
13.1644	43.68
13.1746	42.16
13.1847	43.47
13.1949	43.51
13.2051	43.82
13.2152	43.03
13.2254	43.41
13.2355	44.18
13.2457	43.68
13.2559	43.34
13.266	43.70
13.2762	43.16
13.2864	42.62
13.2965	42.88
13.3067	43.35
13.3169	44.15
13.327	44.76
13.3372	43.26
13.3474	43.79
13.3575	44.26
13.3677	44.32
13.3778	44.73
13.388	43.95
13.3982	44.77
13.4083	44.52
13.4185	44.71
13.4287	45.10
13.4388	43.59
13.449	44.47
13.4592	44.29
13.4693	46.02
13.4795	45.29
13.4897	44.52
13.4998	44.76
13.51	45.34
13.5201	45.27
13.5303	46.32
13.5405	45.64
13.5506	45.07
13.5608	45.23
13.571	45.27
13.5811	45.15
13.5913	45.33
13.6015	44.77
13.6116	45.36
13.6218	46.09
13.632	46.11
13.6421	46.87
13.6523	46.22
13.6625	46.30
13.6726	46.12
13.6828	47.42
13.6929	45.69
13.7031	45.84
13.7133	47.99
13.7234	46.26
13.7336	46.99
13.7438	48.60
13.7539	46.55
13.7641	47.56
13.7743	47.97
13.7844	47.87
13.7946	46.82
13.8048	47.90
13.8149	46.62
13.8251	47.30
13.8352	48.46
13.8454	46.44
13.8556	48.32
13.8657	47.85
13.8759	48.23
13.8861	48.73
13.8962	48.70
13.9064	48.18
13.9166	48.37
13.9267	50.07
13.9369	49.48
13.9471	49.30
13.9572	48.95
13.9674	48.74
13.9776	48.96
13.9877	48.97
13.9979	49.79
14.008	49.16
14.0182	49.27
14.0284	49.84
14.0385	49.41
14.0487	49.79
14.0589	50.56
14.069	49.61
14.0792	50.52
14.0894	49.82
14.0995	50.13
14.1097	50.37
14.1199	50.46
14.13	51.04
14.1402	50.00
14.1503	50.70
14.1605	51.02
14.1707	51.05
14.1808	50.82
14.191	51.18
14.2012	52.21
14.2113	50.49
14.2215	51.24
14.2317	51.45
14.2418	51.84
14.252	51.99
14.2622	51.69
14.2723	52.09
14.2825	51.55
14.2927	50.74
14.3028	52.40
14.313	51.73
14.3231	52.67
14.3333	52.08
14.3435	53.31
14.3536	52.04
14.3638	53.58
14.374	54.31
14.3841	52.59
14.3943	52.02
14.4045	53.23
14.4146	54.29
14.4248	53.74
14.435	53.31
14.4451	52.86
14.4553	53.26
14.4654	53.40
14.4756	54.83
14.4858	53.73
14.4959	53.85
14.5061	53.63
14.5163	54.89
14.5264	53.79
14.5366	55.77
14.5468	54.68
14.5569	55.49
14.5671	54.69
14.5773	55.42
14.5874	55.40
14.5976	55.33
14.6078	54.62
14.6179	54.91
14.6281	55.70
14.6382	54.99
14.6484	55.84
14.6586	56.27
14.6687	54.99
14.6789	56.62
14.6891	56.20
14.6992	55.48
14.7094	56.96
14.7196	56.75
14.7297	56.57
14.7399	57.59
14.7501	58.09
14.7602	57.54
14.7704	56.89
14.7805	57.05
14.7907	56.38
14.8009	57.50
14.811	58.12
14.8212	59.09
14.8314	56.93
14.8415	58.44
14.8517	57.77
14.8619	58.30
14.872	59.99
14.8822	57.40
14.8924	59.69
14.9025	59.37
14.9127	59.18
14.9229	59.28
14.933	60.34
14.9432	59.75
14.9533	59.59
14.9635	60.26
14.9737	59.78
14.9838	60.29
14.994	59.70
15.0042	59.74
15.0143	59.82
15.0245	60.50
15.0347	59.73
15.0448	59.93
15.055	60.92
15.0652	60.65
15.0753	60.58
15.0855	62.59
15.0956	60.68
15.1058	61.34
15.116	61.94
15.1261	60.70
15.1363	62.97
15.1465	62.54
15.1566	62.55
15.1668	62.62
15.177	62.77
15.1871	62.84
15.1973	63.28
15.2075	62.90
15.2176	62.50
15.2278	63.91
15.238	63.10
15.2481	63.20
15.2583	64.38
15.2684	63.49
15.2786	64.79
15.2888	64.57
15.2989	63.71
15.3091	63.27
15.3193	65.16
15.3294	64.34
15.3396	64.90
15.3498	65.18
15.3599	65.20
15.3701	65.45
15.3803	65.52
15.3904	64.93
15.4006	65.74
15.4107	65.49
15.4209	65.60
15.4311	66.41
15.4412	67.31
15.4514	65.51
15.4616	65.60
15.4717	67.04
15.4819	67.22
15.4921	66.66
15.5022	66.19
15.5124	67.07
15.5226	68.03
15.5327	68.37
15.5429	68.32
15.553	67.38
15.5632	68.40
15.5734	68.20
15.5835	68.30
15.5937	68.09
15.6039	68.56
15.614	68.72
15.6242	69.79
15.6344	68.20
15.6445	68.77
15.6547	69.91
15.6649	70.09
15.675	70.84
15.6852	69.66
15.6954	70.30
15.7055	69.74
15.7157	69.81
15.7258	70.37
15.736	70.18
15.7462	71.23
15.7563	70.28
15.7665	71.46
15.7767	70.29
15.7868	70.98
15.797	70.69
15.8072	73.11
15.8173	71.51
15.8275	72.21
15.8377	73.16
15.8478	72.38
15.858	72.32
15.8681	72.47
15.8783	73.24
15.8885	71.93
15.8986	72.26
15.9088	73.21
15.919	73.82
15.9291	73.12
15.9393	74.03
15.9495	73.98
15.9596	75.72
15.9698	74.46
15.98	74.50
15.9901	74.26
16.0003	74.79
16.0105	73.96
16.0206	74.55
16.0308	74.79
16.0409	74.60
16.0511	75.48
16.0613	76.04
16.0714	76.52
16.0816	76.91
16.0918	76.88
16.1019	76.84
16.1121	75.30
16.1223	75.90
16.1324	77.52
16.1426	78.55
16.1528	76.51
16.1629	77.07
16.1731	77.86
16.1832	76.94
16.1934	77.71
16.2036	78.65
16.2137	79.54
16.2239	79.13
16.2341	78.71
16.2442	79.19
16.2544	78.50
16.2646	79.85
16.2747	79.95
16.2849	79.04
16.2951	79.92
16.3052	80.04
16.3154	79.77
16.3256	79.52
16.3357	81.38
16.3459	81.52
16.356	81.57
16.3662	81.92
16.3764	80.48
16.3865	82.77
16.3967	80.73
16.4069	82.25
16.417	82.33
16.4272	82.27
16.4374	84.27
16.4475	82.81
16.4577	82.03
16.4679	83.42
16.478	83.95
16.4882	84.66
16.4983	83.05
16.5085	85.12
16.5187	83.32
16.5288	82.95
16.539	85.88
16.5492	83.61
16.5593	84.21
16.5695	84.50
16.5797	85.57
16.5898	85.44
16.6	84.18
16.6102	85.40
16.6203	87.45
16.6305	86.84
16.6407	87.65
16.6508	86.98
16.661	86.18
16.6711	87.05
16.6813	87.70
16.6915	87.95
16.7016	87.93
16.7118	87.92
16.722	89.27
16.7321	87.90
16.7423	89.71
16.7525	90.79
16.7626	88.58
16.7728	89.63
16.783	89.71
16.7931	90.60
16.8033	90.37
16.8134	91.68
16.8236	89.95
16.8338	90.95
16.8439	91.38
16.8541	91.59
16.8643	90.43
16.8744	92.86
16.8846	92.02
16.8948	92.91
16.9049	93.12
16.9151	92.48
16.9253	93.09
16.9354	94.43
16.9456	92.68
16.9558	92.84
16.9659	94.71
16.9761	94.04
16.9862	93.62
16.9964	94.60
17.0066	93.75
17.0167	94.07
17.0269	95.74
17.0371	95.71
17.0472	96.41
17.0574	96.11
17.0676	94.16
17.0777	94.71
17.0879	95.87
17.0981	94.90
17.1082	97.09
17.1184	96.17
17.1285	95.58
17.1387	97.01
17.1489	97.68
17.159	96.12
17.1692	97.72
17.1794	97.38
17.1895	95.95
17.1997	96.26
17.2099	99.60
17.22	98.08
17.2302	97.35
17.2404	98.49
17.2505	95.99
17.2607	97.80
17.2709	100.02
17.281	99.01
17.2912	99.86
17.3013	98.16
17.3115	99.50
17.3217	100.68
17.3318	100.30
17.342	99.95
17.3522	100.92
17.3623	99.71
17.3725	98.29
17.3827	102.03
17.3928	101.06
17.403	99.68
17.4132	102.48
17.4233	102.08
17.4335	101.91
17.4436	102.21
17.4538	103.15
17.464	103.32
17.4741	102.70
17.4843	103.70
17.4945	104.08
17.5046	102.04
17.5148	104.66
17.525	103.84
17.5351	102.88
17.5453	105.74
17.5555	105.06
17.5656	106.24
17.5758	105.09
17.5859	106.45
17.5961	106.56
17.6063	107.52
17.6164	107.56
17.6266	105.74
17.6368	107.68
17.6469	107.49
17.6571	107.51
17.6673	108.08
17.6774	106.95
17.6876	108.16
17.6978	110.79
17.7079	107.51
17.7181	111.26
17.7283	112.08
17.7384	110.21
17.7486	112.55
17.7587	113.00
17.7689	112.31
17.7791	113.47
17.7892	113.30
17.7994	112.12
17.8096	114.68
17.8197	114.86
17.8299	114.20
17.8401	115.46
17.8502	117.30
17.8604	115.55
17.8706	115.36
17.8807	117.51
17.8909	118.58
17.901	120.05
17.9112	119.35
17.9214	121.40
17.9315	119.40
17.9417	122.29
17.9519	123.70
17.962	121.87
17.9722	124.47
17.9824	124.10
17.9925	125.69
18.0027	127.00
18.0129	126.63
18.023	127.49
18.0332	129.12
18.0434	127.79
18.0535	129.12
18.0637	131.78
18.0738	131.54
18.084	133.30
18.0942	132.89
18.1043	133.21
18.1145	135.30
18.1247	136.77
18.1348	137.10
18.145	137.07
18.1552	139.41
18.1653	140.81
18.1755	142.91
18.1857	144.40
18.1958	146.18
18.206	145.41
18.2161	151.07
18.2263	148.90
18.2365	150.36
18.2466	154.20
18.2568	156.21
18.267	155.52
18.2771	158.67
18.2873	159.24
18.2975	162.07
18.3076	165.70
18.3178	167.06
18.328	168.18
18.3381	172.15
18.3483	172.98
18.3585	174.01
18.3686	178.03
18.3788	180.27
18.3889	181.73
18.3991	187.24
18.4093	188.99
18.4194	188.60
18.4296	195.69
18.4398	197.83
18.4499	199.21
18.4601	202.08
18.4703	203.95
18.4804	206.20
18.4906	211.85
18.5008	217.55
18.5109	215.62
18.5211	221.30
18.5312	223.95
18.5414	225.15
18.5516	231.02
18.5617	232.96
18.5719	233.26
18.5821	235.59
18.5922	240.12
18.6024	242.91
18.6126	246.33
18.6227	244.99
18.6329	248.73
18.6431	251.52
18.6532	253.07
18.6634	255.33
18.6736	258.27
18.6837	257.79
18.6939	258.18
18.704	259.37
18.7142	260.68
18.7244	260.06
18.7345	261.16
18.7447	259.03
18.7549	259.45
18.765	259.68
18.7752	260.30
18.7854	255.94
18.7955	257.58
18.8057	256.24
18.8159	253.68
18.826	256.87
18.8362	252.96
18.8463	249.76
18.8565	245.29
18.8667	242.64
18.8768	238.64
18.887	239.08
18.8972	233.19
18.9073	230.80
18.9175	227.18
18.9277	227.62
18.9378	223.16
18.948	223.21
18.9582	218.13
18.9683	213.44
18.9785	213.70
18.9887	210.04
18.9988	205.34
19.009	205.06
19.0191	202.48
19.0293	194.88
19.0395	196.55
19.0496	192.30
19.0598	188.94
19.07	187.78
19.0801	183.31
19.0903	182.44
19.1005	177.29
19.1106	177.15
19.1208	173.68
19.131	173.02
19.1411	170.33
19.1513	165.95
19.1614	165.12
19.1716	162.99
19.1818	161.37
19.1919	161.95
19.2021	158.06
19.2123	155.85
19.2224	156.49
19.2326	153.58
19.2428	152.11
19.2529	151.24
19.2631	150.91
19.2733	148.38
19.2834	145.57
19.2936	144.51
19.3038	142.02
19.3139	143.00
19.3241	143.59
19.3342	138.98
19.3444	141.20
19.3546	140.15
19.3647	138.15
19.3749	139.23
19.3851	135.26
19.3952	135.65
19.4054	135.55
19.4156	133.87
19.4257	134.24
19.4359	131.31
19.4461	133.00
19.4562	129.84
19.4664	131.16
19.4765	129.51
19.4867	129.55
19.4969	127.86
19.507	127.86
19.5172	128.34
19.5274	128.73
19.5375	126.07
19.5477	125.39
19.5579	126.74
19.568	127.37
19.5782	123.41
19.5884	125.41
19.5985	124.05
19.6087	125.02
19.6188	123.87
19.629	123.64
19.6392	123.09
19.6493	123.48
19.6595	123.24
19.6697	122.44
19.6798	122.52
19.69	122.62
19.7002	121.15
19.7103	122.65
19.7205	121.62
19.7307	119.18
19.7408	120.77
19.751	119.76
19.7612	121.21
19.7713	121.62
19.7815	121.33
19.7916	120.39
19.8018	123.19
19.812	121.70
19.8221	121.02
19.8323	120.43
19.8425	121.85
19.8526	119.42
19.8628	121.05
19.873	120.25
19.8831	120.05
19.8933	121.06
19.9035	120.41
19.9136	118.80
19.9238	121.35
19.9339	120.38
19.9441	119.15
19.9543	119.59
19.9644	122.16
19.9746	121.05
19.9848	121.42
19.9949	121.58
20.0051	119.06
20.0153	120.74
20.0254	121.37
20.0356	121.23
20.0458	121.29
20.0559	121.99
20.0661	120.46
20.0763	121.87
20.0864	121.46
20.0966	122.76
20.1067	121.82
20.1169	124.83
20.1271	122.87
20.1372	123.18
20.1474	123.99
20.1576	122.74
20.1677	125.24
20.1779	124.70
20.1881	123.49
20.1982	125.90
20.2084	126.32
20.2186	125.61
20.2287	126.23
20.2389	127.44
20.249	126.31
20.2592	127.36
20.2694	127.80
20.2795	128.72
20.2897	130.06
20.2999	130.54
20.31	129.02
20.3202	128.84
20.3304	129.60
20.3405	130.45
20.3507	131.71
20.3609	130.97
20.371	130.80
20.3812	132.79
20.3914	135.42
20.4015	133.01
20.4117	133.49
20.4218	134.55
20.432	134.48
20.4422	135.10
20.4523	135.98
20.4625	135.57
20.4727	136.85
20.4828	137.77
20.493	138.03
20.5032	137.65
20.5133	138.97
20.5235	137.47
20.5337	140.89
20.5438	141.09
20.554	140.31
20.5641	140.77
20.5743	137.85
20.5845	140.71
20.5946	140.72
20.6048	141.38
20.615	139.85
20.6251	141.50
20.6353	142.40
20.6455	139.67
20.6556	142.76
20.6658	140.06
20.676	141.43
20.6861	142.68
20.6963	141.80
20.7065	140.86
20.7166	142.27
20.7268	142.85
20.7369	140.80
20.7471	141.77
20.7573	141.09
20.7674	137.73
20.7776	140.25
20.7878	140.95
20.7979	139.65
20.8081	138.36
20.8183	139.04
20.8284	135.91
20.8386	137.67
20.8488	135.35
20.8589	135.32
20.8691	136.13
20.8792	137.15
20.8894	134.47
20.8996	133.62
20.9097	132.09
20.9199	131.99
20.9301	133.32
20.9402	132.52
20.9504	129.07
20.9606	130.31
20.9707	129.51
20.9809	127.84
20.9911	128.59
21.0012	127.99
21.0114	126.18
21.0216	125.65
21.0317	124.85
21.0419	124.80
21.052	124.57
21.0622	123.80
21.0724	122.01
21.0825	123.43
21.0927	122.17
21.1029	120.18
21.113	121.07
21.1232	118.62
21.1334	118.41
21.1435	119.10
21.1537	118.40
21.1639	116.08
21.174	116.73
21.1842	116.74
21.1943	114.33
21.2045	116.30
21.2147	114.66
21.2248	114.24
21.235	116.51
21.2452	114.34
21.2553	113.13
21.2655	112.79
21.2757	113.58
21.2858	112.69
21.296	113.50
21.3062	112.17
21.3163	110.43
21.3265	110.49
21.3366	110.49
21.3468	109.98
21.357	110.26
21.3671	110.88
21.3773	108.23
21.3875	109.73
21.3976	111.14
21.4078	108.15
21.418	109.24
21.4281	109.54
21.4383	107.68
21.4485	108.06
21.4586	109.13
21.4688	106.65
21.479	110.29
21.4891	106.73
21.4993	107.21
21.5094	108.36
21.5196	109.57
21.5298	106.98
21.5399	108.76
21.5501	109.41
21.5603	107.14
21.5704	108.73
21.5806	108.52
21.5908	107.24
21.6009	111.20
21.6111	107.65
21.6213	108.05
21.6314	109.68
21.6416	109.31
21.6517	108.21
21.6619	110.88
21.6721	110.62
21.6822	109.98
21.6924	112.34
21.7026	111.58
21.7127	110.88
21.7229	112.39
21.7331	112.38
21.7432	112.88
21.7534	114.60
21.7636	113.52
21.7737	114.38
21.7839	113.75
21.7941	114.15
21.8042	115.30
21.8144	115.82
21.8245	116.41
21.8347	117.46
21.8449	117.15
21.855	120.62
21.8652	119.48
21.8754	121.42
21.8855	122.14
21.8957	120.10
21.9059	123.13
21.916	124.88
21.9262	122.82
21.9364	124.84
21.9465	126.54
21.9567	126.55
21.9668	128.43
21.977	127.32
21.9872	128.39
21.9973	127.76
22.0075	128.86
22.0177	128.66
22.0278	130.26
22.038	131.98
22.0482	130.30
22.0583	133.98
22.0685	132.86
22.0787	133.76
22.0888	135.18
22.099	136.20
22.1092	136.66
22.1193	137.88
22.1295	138.51
22.1396	137.90
22.1498	139.64
22.16	141.14
22.1701	140.82
22.1803	144.01
22.1905	144.04
22.2006	143.87
22.2108	144.34
22.221	146.44
22.2311	145.04
22.2413	148.65
22.2515	150.27
22.2616	148.82
22.2718	151.82
22.2819	153.54
22.2921	151.16
22.3023	154.45
22.3124	155.05
22.3226	153.73
22.3328	156.57
22.3429	158.33
22.3531	158.79
22.3633	157.97
22.3734	158.24
22.3836	159.23
22.3938	162.02
22.4039	161.81
22.4141	160.02
22.4243	163.80
22.4344	165.38
22.4446	161.51
22.4547	163.23
22.4649	165.46
22.4751	163.72
22.4852	164.82
22.4954	165.91
22.5056	165.41
22.5157	165.20
22.5259	165.88
22.5361	163.02
22.5462	166.82
22.5564	167.03
22.5666	164.59
22.5767	164.23
22.5869	163.80
22.597	162.69
22.6072	162.63
22.6174	164.58
22.6275	161.38
22.6377	162.36
22.6479	160.51
22.658	160.28
22.6682	159.70
22.6784	161.40
22.6885	157.50
22.6987	157.94
22.7089	159.37
22.719	154.31
22.7292	156.41
22.7394	156.07
22.7495	152.18
22.7597	152.77
22.7698	153.46
22.78	152.22
22.7902	151.49
22.8003	150.04
22.8105	148.85
22.8207	149.32
22.8308	147.08
22.841	143.09
22.8512	144.40
22.8613	143.55
22.8715	141.93
22.8817	142.06
22.8918	141.59
22.902	138.87
22.9121	139.07
22.9223	137.40
22.9325	135.20
22.9426	135.65
22.9528	134.88
22.963	132.23
22.9731	133.71
22.9833	131.76
22.9935	129.73
23.0036	130.16
23.0138	128.59
23.024	126.62
23.0341	128.52
23.0443	125.96
23.0545	124.07
23.0646	123.76
23.0748	122.85
23.0849	121.28
23.0951	120.82
23.1053	120.48
23.1154	118.38
23.1256	118.37
23.1358	116.15
23.1459	115.07
23.1561	114.71
23.1663	112.71
23.1764	111.60
23.1866	112.65
23.1968	112.34
23.2069	109.76
23.2171	109.89
23.2272	108.98
23.2374	107.21
23.2476	105.66
23.2577	108.21
23.2679	104.47
23.2781	105.19
23.2882	104.91
23.2984	103.32
23.3086	103.43
23.3187	101.29
23.3289	101.09
23.3391	100.78
23.3492	99.41
23.3594	98.65
23.3695	98.35
23.3797	97.79
23.3899	96.41
23.4	95.27
23.4102	94.30
23.4204	94.53
23.4305	94.48
23.4407	92.91
23.4509	94.15
23.461	93.83
23.4712	90.91
23.4814	90.55
23.4915	90.51
23.5017	89.95
23.5119	89.37
23.522	89.44
23.5322	88.01
23.5423	89.04
23.5525	87.60
23.5627	86.90
23.5728	85.12
23.583	85.94
23.5932	85.70
23.6033	83.95
23.6135	85.30
23.6237	82.98
23.6338	82.84
23.644	83.24
23.6542	82.06
23.6643	82.53
23.6745	81.95
23.6846	80.71
23.6948	79.23
23.705	80.63
23.7151	79.29
23.7253	78.84
23.7355	79.04
23.7456	77.80
23.7558	77.97
23.766	78.08
23.7761	75.99
23.7863	74.87
23.7965	76.57
23.8066	75.12
23.8168	75.55
23.827	75.31
23.8371	74.35
23.8473	74.54
23.8574	75.71
23.8676	74.00
23.8778	73.00
23.8879	73.67
23.8981	72.02
23.9083	72.13
23.9184	71.09
23.9286	71.36
23.9388	72.21
23.9489	71.67
23.9591	71.73
23.9693	71.04
23.9794	70.59
23.9896	69.90
23.9997	70.33
24.0099	68.94
24.0201	69.66
24.0302	67.34
24.0404	68.98
24.0506	68.65
24.0607	68.37
24.0709	68.71
24.0811	68.60
24.0912	67.91
24.1014	67.30
24.1116	67.91
24.1217	66.24
24.1319	66.68
24.1421	66.61
24.1522	67.33
24.1624	65.61
24.1725	66.42
24.1827	65.48
24.1929	66.02
24.203	65.02
24.2132	64.43
24.2234	64.37
24.2335	64.76
24.2437	63.74
24.2539	64.38
24.264	64.29
24.2742	63.95
24.2844	64.18
24.2945	64.43
24.3047	62.47
24.3148	62.68
24.325	62.68
24.3352	63.21
24.3453	63.33
24.3555	61.48
24.3657	63.14
24.3758	61.66
24.386	62.38
24.3962	62.85
24.4063	61.43
24.4165	62.39
24.4267	61.05
24.4368	61.86
24.447	59.98
24.4572	61.12
24.4673	60.26
24.4775	61.05
24.4876	61.30
24.4978	61.09
24.508	60.48
24.5181	60.07
24.5283	60.99
24.5385	59.37
24.5486	58.60
24.5588	59.95
24.569	59.87
24.5791	60.68
24.5893	59.95
24.5995	59.49
24.6096	60.12
24.6198	59.85
24.6299	58.91
24.6401	58.88
24.6503	59.09
24.6604	57.90
24.6706	58.80
24.6808	58.48
24.6909	58.80
24.7011	58.67
24.7113	57.66
24.7214	57.96
24.7316	56.54
24.7418	58.85
24.7519	57.68
24.7621	57.51
24.7723	57.43
24.7824	57.65
24.7926	56.99
24.8027	57.58
24.8129	57.39
24.8231	57.97
24.8332	56.96
24.8434	58.00
24.8536	56.61
24.8637	57.24
24.8739	57.45
24.8841	55.52
24.8942	57.06
24.9044	56.87
24.9146	56.64
24.9247	55.90
24.9349	54.79
24.945	56.90
24.9552	55.74
24.9654	56.41
24.9755	56.99
24.9857	56.23
24.9959	56.20
25.006	56.94
25.0162	55.71
25.0264	55.16
25.0365	54.48
25.0467	56.72
25.0569	55.80
25.067	54.82
25.0772	56.03
25.0874	56.92
25.0975	55.65
25.1077	55.06
25.1178	54.44
25.128	54.46
25.1382	55.56
25.1483	54.34
25.1585	54.82
25.1687	54.89
25.1788	54.87
25.189	53.44
25.1992	54.19
25.2093	55.69
25.2195	54.15
25.2297	54.21
25.2398	54.41
25.25	54.91
25.2601	54.74
25.2703	54.26
25.2805	54.54
25.2906	54.22
25.3008	53.94
25.311	54.35
25.3211	54.04
25.3313	53.86
25.3415	53.60
25.3516	55.54
25.3618	53.78
25.372	54.65
25.3821	53.48
25.3923	54.45
25.4024	53.60
25.4126	53.17
25.4228	53.10
25.4329	53.31
25.4431	53.82
25.4533	53.54
25.4634	52.32
25.4736	52.60
25.4838	53.15
25.4939	52.90
25.5041	53.99
25.5143	54.08
25.5244	53.40
25.5346	53.35
25.5448	53.04
25.5549	53.41
25.5651	53.47
25.5752	53.98
25.5854	53.86
25.5956	53.07
25.6057	53.56
25.6159	52.92
25.6261	51.66
25.6362	53.27
25.6464	52.31
25.6566	52.44
25.6667	53.18
25.6769	52.90
25.6871	52.35
25.6972	52.49
25.7074	52.64
25.7175	52.03
25.7277	52.42
25.7379	52.31
25.748	53.74
25.7582	51.29
25.7684	51.07
25.7785	52.40
25.7887	51.97
25.7989	51.74
25.809	51.55
25.8192	52.51
25.8294	51.65
25.8395	53.21
25.8497	53.07
25.8599	51.82
25.87	52.31
25.8802	52.25
25.8903	51.60
25.9005	50.45
25.9107	51.45
25.9208	51.10
25.931	51.43
25.9412	50.81
25.9513	50.45
25.9615	50.77
25.9717	51.15
25.9818	51.80
25.992	50.82
26.0022	50.85
26.0123	50.88
26.0225	51.91
26.0326	50.56
26.0428	51.07
26.053	50.56
26.0631	50.25
26.0733	51.13
26.0835	51.65
26.0936	49.90
26.1038	51.30
26.114	50.35
26.1241	50.91
26.1343	48.88
26.1445	50.36
26.1546	50.04
26.1648	49.69
26.175	50.77
26.1851	49.66
26.1953	49.49
26.2054	49.83
26.2156	50.37
26.2258	48.80
26.2359	49.93
26.2461	49.26
26.2563	49.58
26.2664	48.84
26.2766	49.13
26.2868	48.69
26.2969	48.92
26.3071	48.27
26.3173	49.07
26.3274	49.74
26.3376	48.44
26.3477	49.65
26.3579	48.89
26.3681	48.15
26.3782	48.65
26.3884	48.15
26.3986	48.23
26.4087	49.30
26.4189	48.13
26.4291	47.97
26.4392	48.78
26.4494	48.13
26.4596	47.62
26.4697	48.34
26.4799	47.38
26.4901	47.42
26.5002	47.39
26.5104	48.52
26.5205	48.95
26.5307	47.73
26.5409	48.29
26.551	48.24
26.5612	48.43
26.5714	48.23
26.5815	48.00
26.5917	47.76
26.6019	47.35
26.612	47.40
26.6222	47.50
26.6324	46.63
26.6425	47.84
26.6527	47.11
26.6628	47.33
26.673	46.23
26.6832	47.09
26.6933	47.43
26.7035	47.38
26.7137	47.60
26.7238	47.13
26.734	47.27
26.7442	46.40
26.7543	46.60
26.7645	47.41
26.7747	47.11
26.7848	46.68
26.795	48.14
26.8052	47.02
26.8153	46.73
26.8255	46.84
26.8356	47.95
26.8458	46.89
26.856	47.43
26.8661	46.77
26.8763	45.38
26.8865	46.77
26.8966	46.93
26.9068	46.50
26.917	47.29
26.9271	46.06
26.9373	46.50
26.9475	47.70
26.9576	46.10
26.9678	45.68
26.9779	46.89
26.9881	45.88
26.9983	46.23
27.0084	46.52
27.0186	46.51
27.0288	46.81
27.0389	47.13
27.0491	46.03
27.0593	47.07
27.0694	46.76
27.0796	45.90
27.0898	45.42
27.0999	46.30
27.1101	46.61
27.1202	46.52
27.1304	45.67
27.1406	45.74
27.1507	46.40
27.1609	45.68
27.1711	45.76
27.1812	46.03
27.1914	45.47
27.2016	45.97
27.2117	46.40
27.2219	45.81
27.2321	46.15
27.2422	45.37
27.2524	46.73
27.2626	46.07
27.2727	46.58
27.2829	46.22
27.293	45.41
27.3032	45.10
27.3134	44.83
27.3235	46.66
27.3337	45.48
27.3439	46.23
27.354	46.23
27.3642	45.36
27.3744	45.68
27.3845	46.13
27.3947	46.40
27.4049	45.99
27.415	45.79
27.4252	45.39
27.4353	46.70
27.4455	46.52
27.4557	45.93
27.4658	46.67
27.476	47.24
27.4862	47.32
27.4963	46.42
27.5065	47.06
27.5167	46.95
27.5268	46.06
27.537	46.32
27.5472	46.96
27.5573	46.71
27.5675	46.54
27.5777	47.54
27.5878	47.56
27.598	46.49
27.6081	47.41
27.6183	47.90
27.6285	47.43
27.6386	47.13
27.6488	47.90
27.659	46.79
27.6691	47.30
27.6793	48.55
27.6895	48.43
27.6996	47.68
27.7098	47.88
27.72	48.33
27.7301	48.21
27.7403	48.02
27.7504	49.26
27.7606	48.62
27.7708	48.62
27.7809	50.46
27.7911	49.86
27.8013	48.80
27.8114	48.87
27.8216	49.70
27.8318	49.37
27.8419	49.71
27.8521	49.78
27.8623	50.66
27.8724	50.63
27.8826	50.60
27.8928	50.59
27.9029	52.77
27.9131	49.81
27.9232	51.55
27.9334	51.32
27.9436	51.55
27.9537	52.19
27.9639	52.87
27.9741	53.27
27.9842	53.14
27.9944	53.11
28.0046	53.52
28.0147	54.01
28.0249	53.06
28.0351	53.92
28.0452	54.60
28.0554	54.30
28.0655	56.39
28.0757	55.09
28.0859	56.15
28.096	55.83
28.1062	56.21
28.1164	57.50
28.1265	57.75
28.1367	58.08
28.1469	59.09
28.157	57.99
28.1672	59.13
28.1774	60.13
28.1875	59.15
28.1977	60.28
28.2079	61.92
28.218	62.20
28.2282	63.24
28.2383	64.59
28.2485	62.18
28.2587	63.90
28.2688	64.24
28.279	65.17
28.2892	65.07
28.2993	64.46
28.3095	65.31
28.3197	65.90
28.3298	65.29
28.34	66.62
28.3502	68.35
28.3603	67.96
28.3705	67.01
28.3806	68.54
28.3908	68.25
28.401	68.90
28.4111	70.36
28.4213	68.41
28.4315	68.74
28.4416	69.32
28.4518	70.04
28.462	70.34
28.4721	70.70
28.4823	70.18
28.4925	69.76
28.5026	70.74
28.5128	71.12
28.523	70.43
28.5331	71.96
28.5433	70.72
28.5534	70.47
28.5636	71.12
28.5738	71.16
28.5839	70.82
28.5941	70.93
28.6043	73.55
28.6144	70.22
28.6246	71.79
28.6348	72.26
28.6449	71.76
28.6551	71.90
28.6653	70.85
28.6754	73.36
28.6856	71.66
28.6957	71.62
28.7059	71.01
28.7161	70.34
28.7262	71.87
28.7364	69.32
28.7466	70.57
28.7567	70.61
28.7669	69.34
28.7771	68.98
28.7872	69.80
28.7974	68.50
28.8076	68.05
28.8177	68.11
28.8279	67.66
28.8381	67.21
28.8482	67.29
28.8584	66.98
28.8685	67.30
28.8787	67.55
28.8889	64.99
28.899	64.79
28.9092	65.85
28.9194	64.15
28.9295	64.26
28.9397	64.80
28.9499	65.08
28.96	62.04
28.9702	63.41
28.9804	62.13
28.9905	62.52
29.0007	60.91
29.0108	60.83
29.021	60.96
29.0312	60.93
29.0413	60.30
29.0515	60.64
29.0617	60.32
29.0718	58.09
29.082	58.27
29.0922	58.50
29.1023	57.01
29.1125	57.02
29.1227	57.51
29.1328	56.01
29.143	57.65
29.1531	55.30
29.1633	55.77
29.1735	55.52
29.1836	55.36
29.1938	55.85
29.204	54.88
29.2141	54.98
29.2243	53.20
29.2345	54.77
29.2446	54.30
29.2548	53.27
29.265	52.86
29.2751	53.24
29.2853	52.30
29.2955	52.09
29.3056	51.93
29.3158	50.80
29.3259	51.40
29.3361	51.77
29.3463	49.87
29.3564	48.95
29.3666	49.68
29.3768	50.47
29.3869	49.09
29.3971	50.26
29.4073	49.17
29.4174	49.42
29.4276	47.80
29.4378	48.78
29.4479	49.44
29.4581	50.09
29.4682	47.83
29.4784	47.20
29.4886	47.69
29.4987	47.39
29.5089	47.52
29.5191	46.20
29.5292	45.67
29.5394	46.57
29.5496	47.19
29.5597	46.64
29.5699	46.34
29.5801	46.04
29.5902	45.57
29.6004	45.64
29.6106	45.94
29.6207	46.03
29.6309	44.46
29.641	44.46
29.6512	44.59
29.6614	45.05
29.6715	45.99
29.6817	45.07
29.6919	44.34
29.702	44.41
29.7122	43.86
29.7224	44.59
29.7325	44.30
29.7427	43.54
29.7529	43.12
29.763	43.26
29.7732	43.77
29.7833	43.46
29.7935	44.71
29.8037	42.93
29.8138	42.91
29.824	43.32
29.8342	43.26
29.8443	42.42
29.8545	42.66
29.8647	41.94
29.8748	42.49
29.885	43.56
29.8952	42.76
29.9053	43.49
29.9155	42.70
29.9257	41.94
29.9358	42.24
29.946	43.16
29.9561	42.37
29.9663	41.64
29.9765	42.22
29.9866	41.36
29.9968	41.98
30.007	41.65
30.0171	41.99
30.0273	41.91
30.0375	42.40
30.0476	41.62
30.0578	41.54
30.068	41.93
30.0781	42.32
30.0883	42.73
30.0984	42.07
30.1086	40.94
30.1188	41.46
30.1289	41.57
30.1391	41.38
30.1493	40.91
30.1594	40.93
30.1696	41.63
30.1798	41.80
30.1899	41.23
30.2001	40.09
30.2103	40.74
30.2204	40.88
30.2306	40.21
30.2408	39.82
30.2509	39.46
30.2611	39.31
30.2712	40.16
30.2814	40.49
30.2916	39.29
30.3017	39.14
30.3119	40.32
30.3221	39.67
30.3322	39.79
30.3424	39.18
30.3526	38.90
30.3627	38.76
30.3729	39.30
30.3831	38.16
30.3932	39.48
30.4034	39.38
30.4135	38.48
30.4237	37.86
30.4339	38.45
30.444	38.64
30.4542	38.68
30.4644	38.36
30.4745	37.54
30.4847	37.74
30.4949	38.07
30.505	37.23
30.5152	38.15
30.5254	38.55
30.5355	37.03
30.5457	38.54
30.5559	37.29
30.566	37.26
30.5762	37.79
30.5863	37.75
30.5965	36.76
30.6067	36.32
30.6168	36.79
30.627	36.54
30.6372	36.76
30.6473	36.79
30.6575	36.18
30.6677	36.68
30.6778	36.72
30.688	35.17
30.6982	34.96
30.7083	36.06
30.7185	35.94
30.7286	35.23
30.7388	35.16
30.749	34.91
30.7591	34.87
30.7693	36.51
30.7795	35.81
30.7896	35.48
30.7998	35.34
30.81	34.79
30.8201	34.91
30.8303	34.85
30.8405	35.03
30.8506	35.41
30.8608	34.16
30.871	35.51
30.8811	33.93
30.8913	34.56
30.9014	33.75
30.9116	34.67
30.9218	35.16
30.9319	34.62
30.9421	34.34
30.9523	34.11
30.9624	33.83
30.9726	33.51
30.9828	34.34
30.9929	33.72
31.0031	33.51
31.0133	34.35
31.0234	33.52
31.0336	33.57
31.0437	34.11
31.0539	33.40
31.0641	35.02
31.0742	33.00
31.0844	33.93
31.0946	33.96
31.1047	33.01
31.1149	33.00
31.1251	33.32
31.1352	32.94
31.1454	33.41
31.1556	32.93
31.1657	33.78
31.1759	33.22
31.186	33.59
31.1962	32.43
31.2064	32.63
31.2165	33.11
31.2267	32.99
31.2369	33.49
31.247	32.23
31.2572	32.78
31.2674	32.95
31.2775	32.23
31.2877	32.77
31.2979	33.35
31.308	32.04
31.3182	32.84
31.3284	32.76
31.3385	32.55
31.3487	33.01
31.3588	32.52
31.369	32.78
31.3792	32.80
31.3893	32.26
31.3995	32.49
31.4097	32.96
31.4198	31.41
31.43	32.40
31.4402	32.71
31.4503	32.00
31.4605	32.36
31.4707	33.16
31.4808	32.10
31.491	32.88
31.5011	32.76
31.5113	32.27
31.5215	32.57
31.5316	32.91
31.5418	32.72
31.552	31.87
31.5621	32.04
31.5723	31.79
31.5825	31.68
31.5926	31.91
31.6028	31.65
31.613	31.48
31.6231	31.64
31.6333	31.16
31.6435	32.62
31.6536	31.74
31.6638	32.09
31.6739	31.77
31.6841	33.20
31.6943	31.32
31.7044	31.73
31.7146	31.99
31.7248	31.68
31.7349	31.59
31.7451	32.35
31.7553	31.36
31.7654	31.15
31.7756	31.63
31.7858	32.28
31.7959	31.06
31.8061	31.81
31.8162	31.21
31.8264	31.97
31.8366	31.28
31.8467	32.17
31.8569	31.49
31.8671	32.28
31.8772	32.12
31.8874	32.04
31.8976	31.91
31.9077	31.40
31.9179	32.14
31.9281	32.40
31.9382	31.62
31.9484	31.93
31.9586	32.00
31.9687	32.20
31.9789	31.63
31.989	32.41
31.9992	31.17
32.0094	31.90
32.0195	32.57
32.0297	31.84
32.0399	31.52
32.05	31.88
32.0602	31.46
32.0704	32.79
32.0805	31.77
32.0907	32.48
32.1009	31.76
32.111	32.54
32.1212	31.40
32.1313	31.80
32.1415	32.51
32.1517	31.16
32.1618	31.98
32.172	32.77
32.1822	31.42
32.1923	32.40
32.2025	31.30
32.2127	31.12
32.2228	32.18
32.233	32.74
32.2432	31.22
32.2533	32.03
32.2635	32.95
32.2737	32.28
32.2838	32.57
32.294	31.70
32.3041	31.73
32.3143	32.54
32.3245	32.42
32.3346	31.86
32.3448	32.93
32.355	32.34
32.3651	33.24
32.3753	32.53
32.3855	31.99
32.3956	32.17
32.4058	32.36
32.416	32.31
32.4261	32.37
32.4363	32.30
32.4464	32.09
32.4566	32.16
32.4668	31.73
32.4769	32.48
32.4871	32.25
32.4973	32.73
32.5074	32.31
32.5176	32.59
32.5278	32.20
32.5379	31.45
32.5481	32.48
32.5583	32.23
32.5684	32.64
32.5786	32.33
32.5888	31.57
32.5989	33.49
32.6091	32.80
32.6192	32.08
32.6294	32.85
32.6396	32.54
32.6497	32.18
32.6599	32.88
32.6701	32.25
32.6802	32.43
32.6904	32.41
32.7006	32.08
32.7107	31.27
32.7209	32.33
32.7311	32.41
32.7412	32.34
32.7514	32.39
32.7615	32.65
32.7717	32.78
32.7819	32.45
32.792	32.34
32.8022	31.90
32.8124	32.00
32.8225	31.57
32.8327	32.30
32.8429	32.17
32.853	31.88
32.8632	31.96
32.8734	32.40
32.8835	32.05
32.8937	32.64
32.9039	32.28
32.914	32.20
32.9242	32.32
32.9343	32.29
32.9445	31.72
32.9547	32.13
32.9648	32.65
32.975	32.40
32.9852	31.98
32.9953	31.32
33.0055	32.34
33.0157	32.15
33.0258	33.04
33.036	31.94
33.0462	32.00
33.0563	32.29
33.0665	32.66
33.0766	31.98
33.0868	31.91
33.097	31.91
33.1071	31.88
33.1173	33.57
33.1275	32.50
33.1376	31.85
33.1478	32.59
33.158	32.16
33.1681	32.62
33.1783	32.45
33.1885	32.60
33.1986	32.76
33.2088	32.81
33.2189	33.34
33.2291	32.07
33.2393	31.96
33.2494	32.07
33.2596	32.70
33.2698	32.63
33.2799	32.38
33.2901	32.74
33.3003	33.03
33.3104	32.67
33.3206	33.08
33.3308	32.09
33.3409	32.46
33.3511	33.62
33.3613	32.50
33.3714	32.43
33.3816	33.67
33.3917	32.45
33.4019	32.27
33.4121	32.77
33.4222	32.00
33.4324	33.82
33.4426	33.16
33.4527	32.34
33.4629	31.98
33.4731	33.10
33.4832	32.20
33.4934	32.59
33.5036	32.74
33.5137	32.65
33.5239	32.05
33.534	32.60
33.5442	32.74
33.5544	32.20
33.5645	32.56
33.5747	32.54
33.5849	32.68
33.595	32.65
33.6052	31.95
33.6154	31.43
33.6255	32.29
33.6357	31.45
33.6459	32.32
33.656	32.88
33.6662	32.15
33.6764	31.48
33.6865	31.54
33.6967	31.16
33.7068	31.54
33.717	31.86
33.7272	31.58
33.7373	31.36
33.7475	31.39
33.7577	31.06
33.7678	31.37
33.778	31.41
33.7882	30.91
33.7983	30.65
33.8085	30.57
33.8187	30.68
33.8288	29.56
33.839	30.05
33.8491	29.61
33.8593	29.87
33.8695	29.37
33.8796	29.16
33.8898	29.79
33.9	29.20
33.9101	29.83
33.9203	29.55
33.9305	28.99
33.9406	29.12
33.9508	29.18
33.961	28.36
33.9711	28.82
33.9813	28.13
33.9915	29.05
34.0016	28.51
34.0118	28.24
34.0219	28.91
34.0321	28.37
34.0423	28.73
34.0524	28.07
34.0626	28.04
34.0728	28.24
34.0829	27.84
34.0931	27.73
34.1033	27.90
34.1134	28.04
34.1236	27.90
34.1338	27.26
34.1439	27.16
34.1541	27.10
34.1642	27.16
34.1744	26.54
34.1846	26.96
34.1947	26.60
34.2049	27.55
34.2151	27.09
34.2252	27.43
34.2354	27.27
34.2456	26.76
34.2557	27.61
34.2659	26.83
34.2761	26.58
34.2862	26.65
34.2964	26.63
34.3066	26.62
34.3167	26.55
34.3269	26.33
34.337	26.55
34.3472	26.91
34.3574	25.21
34.3675	26.63
34.3777	26.47
34.3879	26.07
34.398	26.24
34.4082	25.87
34.4184	25.87
34.4285	25.76
34.4387	25.74
34.4489	26.39
34.459	25.39
34.4692	25.68
34.4793	25.07
34.4895	25.18
34.4997	25.53
34.5098	25.83
34.52	25.75
34.5302	25.43
34.5403	25.80
34.5505	25.95
34.5607	25.77
34.5708	24.73
34.581	26.33
34.5912	25.69
34.6013	25.28
34.6115	25.32
34.6217	25.29
34.6318	25.82
34.642	25.57
34.6521	26.00
34.6623	25.44
34.6725	25.15
34.6826	25.41
34.6928	25.38
34.703	24.69
34.7131	25.79
34.7233	25.93
34.7335	25.18
34.7436	25.58
34.7538	24.76
34.764	24.86
34.7741	24.60
34.7843	25.30
34.7944	24.88
34.8046	25.52
34.8148	25.21
34.8249	24.88
34.8351	25.12
34.8453	25.62
34.8554	24.64
34.8656	25.55
34.8758	24.62
34.8859	24.78
34.8961	24.39
34.9063	25.41
34.9164	25.25
34.9266	25.01
34.9367	25.39
34.9469	24.74
34.9571	24.07
34.9672	25.16
34.9774	24.73
34.9876	25.20
34.9977	24.54
35.0079	25.16
35.0181	25.53
35.0282	24.70
35.0384	25.26
35.0486	24.24
35.0587	24.77
35.0689	25.35
35.0791	25.27
35.0892	24.59
35.0994	25.37
35.1095	24.56
35.1197	24.71
35.1299	23.81
35.14	25.16
35.1502	25.34
35.1604	24.96
35.1705	24.82
35.1807	24.74
35.1909	25.10
35.201	24.14
35.2112	24.99
35.2214	24.90
35.2315	23.85
35.2417	24.59
35.2518	24.85
35.262	25.09
35.2722	24.71
35.2823	23.92
35.2925	23.80
35.3027	24.73
35.3128	25.05
35.323	23.84
35.3332	24.09
35.3433	24.62
35.3535	24.96
35.3637	23.88
35.3738	24.24
35.384	24.29
35.3942	24.91
35.4043	24.69
35.4145	24.77
35.4246	24.23
35.4348	23.95
35.445	24.40
35.4551	23.84
35.4653	23.76
35.4755	24.73
35.4856	24.93
35.4958	24.21
35.506	23.81
35.5161	23.90
35.5263	24.17
35.5365	24.54
35.5466	24.54
35.5568	24.50
35.5669	23.80
35.5771	24.13
35.5873	24.30
35.5974	23.96
35.6076	24.29
35.6178	23.37
35.6279	24.27
35.6381	24.24
35.6483	24.20
35.6584	24.03
35.6686	23.82
35.6788	24.39
35.6889	25.04
35.6991	23.48
35.7093	24.74
35.7194	24.34
35.7296	23.58
35.7397	24.41
35.7499	24.35
35.7601	24.27
35.7702	24.04
35.7804	24.07
35.7906	23.98
35.8007	23.74
35.8109	24.70
35.8211	24.84
35.8312	24.11
35.8414	23.74
35.8516	24.27
35.8617	23.76
35.8719	24.06
35.882	23.57
35.8922	23.91
35.9024	24.49
35.9125	23.69
35.9227	24.07
35.9329	23.65
35.943	23.71
35.9532	23.67
35.9634	23.74
35.9735	24.07
35.9837	23.46
35.9939	23.85
36.004	24.10
36.0142	23.15
36.0244	23.97
36.0345	23.48
36.0447	23.65
36.0548	23.67
36.065	24.18
36.0752	23.62
36.0853	23.62
36.0955	23.62
36.1057	24.80
36.1158	23.91
36.126	23.77
36.1362	23.41
36.1463	23.66
36.1565	23.32
36.1667	23.94
36.1768	23.71
36.187	24.65
36.1971	24.05
36.2073	23.15
36.2175	24.10
36.2276	23.55
36.2378	24.27
36.248	23.10
36.2581	23.60
36.2683	24.27
36.2785	23.91
36.2886	23.65
36.2988	24.17
36.309	23.90
36.3191	23.80
36.3293	23.83
36.3395	24.10
36.3496	24.08
36.3598	23.98
36.3699	23.65
36.3801	24.02
36.3903	24.06
36.4004	24.26
36.4106	24.36
36.4208	24.59
36.4309	23.95
36.4411	23.54
36.4513	24.13
36.4614	24.46
36.4716	23.45
36.4818	24.38
36.4919	23.77
36.5021	24.33
36.5122	23.98
36.5224	24.14
36.5326	23.87
36.5427	23.65
36.5529	23.89
36.5631	24.02
36.5732	23.90
36.5834	24.37
36.5936	23.90
36.6037	23.66
36.6139	23.74
36.6241	24.10
36.6342	22.94
36.6444	24.24
36.6546	23.79
36.6647	23.41
36.6749	23.89
36.685	23.61
36.6952	23.86
36.7054	24.07
36.7155	24.12
36.7257	24.13
36.7359	24.40
36.746	24.87
36.7562	24.15
36.7664	24.44
36.7765	24.29
36.7867	23.60
36.7969	23.52
36.807	23.12
36.8172	23.97
36.8273	23.58
36.8375	24.12
36.8477	24.41
36.8578	23.98
36.868	24.33
36.8782	24.07
36.8883	23.96
36.8985	24.55
36.9087	24.45
36.9188	24.68
36.929	24.04
36.9392	23.50
36.9493	24.71
36.9595	24.59
36.9696	24.80
36.9798	24.43
36.99	24.46
37.0001	24.63
37.0103	24.76
37.0205	23.64
37.0306	24.24
37.0408	25.18
37.051	24.58
37.0611	25.35
37.0713	25.08
37.0815	24.45
37.0916	23.93
37.1018	24.95
37.112	24.54
37.1221	25.13
37.1323	24.50
37.1424	24.46
37.1526	24.41
37.1628	24.34
37.1729	24.78
37.1831	25.23
37.1933	25.10
37.2034	24.73
37.2136	25.16
37.2238	24.31
37.2339	25.64
37.2441	25.08
37.2543	25.21
37.2644	24.88
37.2746	24.78
37.2847	25.12
37.2949	25.41
37.3051	25.71
37.3152	26.01
37.3254	25.98
37.3356	25.04
37.3457	24.95
37.3559	25.79
37.3661	25.61
37.3762	25.15
37.3864	25.12
37.3966	25.23
37.4067	25.48
37.4169	24.71
37.4271	25.54
37.4372	25.88
37.4474	25.62
37.4575	25.49
37.4677	26.15
37.4779	25.11
37.488	25.62
37.4982	25.15
37.5084	25.66
37.5185	26.04
37.5287	25.35
37.5389	26.12
37.549	26.60
37.5592	26.46
37.5694	26.25
37.5795	25.64
37.5897	25.49
37.5998	26.71
37.61	26.82
37.6202	26.34
37.6303	26.26
37.6405	26.46
37.6507	26.08
37.6608	26.37
37.671	26.10
37.6812	26.00
37.6913	26.90
37.7015	26.73
37.7117	26.08
37.7218	26.12
37.732	26.82
37.7422	26.40
37.7523	26.20
37.7625	27.70
37.7726	26.90
37.7828	27.27
37.793	27.26
37.8031	27.11
37.8133	26.69
37.8235	27.31
37.8336	26.74
37.8438	27.10
37.854	26.76
37.8641	26.51
37.8743	27.02
37.8845	27.68
37.8946	27.17
37.9048	26.83
37.9149	27.50
37.9251	27.83
37.9353	27.76
37.9454	28.00
37.9556	27.69
37.9658	26.92
37.9759	27.48
37.9861	28.07
37.9963	27.92
38.0064	27.88
38.0166	27.49
38.0268	27.48
38.0369	28.11
38.0471	28.29
38.0573	27.91
38.0674	28.74
38.0776	27.91
38.0877	28.40
38.0979	28.55
38.1081	28.78
38.1182	28.07
38.1284	28.75
38.1386	28.22
38.1487	28.90
38.1589	28.85
38.1691	28.48
38.1792	28.36
38.1894	29.04
38.1996	28.41
38.2097	29.09
38.2199	28.76
38.23	28.96
38.2402	28.39
38.2504	29.32
38.2605	28.96
38.2707	29.40
38.2809	28.74
38.291	28.73
38.3012	29.76
38.3114	29.21
38.3215	29.34
38.3317	30.35
38.3419	28.86
38.352	29.25
38.3622	29.63
38.3724	29.92
38.3825	29.94
38.3927	28.60
38.4028	30.41
38.413	29.57
38.4232	30.18
38.4333	30.00
38.4435	30.53
38.4537	30.02
38.4638	30.18
38.474	30.54
38.4842	30.33
38.4943	30.37
38.5045	30.10
38.5147	29.95
38.5248	31.32
38.535	30.55
38.5451	29.68
38.5553	31.47
38.5655	30.33
38.5756	30.54
38.5858	31.06
38.596	31.28
38.6061	31.31
38.6163	31.04
38.6265	31.08
38.6366	30.46
38.6468	30.73
38.657	31.16
38.6671	31.06
38.6773	30.37
38.6875	30.73
38.6976	30.73
38.7078	30.04
38.7179	30.86
38.7281	30.82
38.7383	30.66
38.7484	31.23
38.7586	29.99
38.7688	30.65
38.7789	30.77
38.7891	30.15
38.7993	30.34
38.8094	30.90
38.8196	29.79
38.8298	31.21
38.8399	30.04
38.8501	31.38
38.8602	31.03
38.8704	30.16
38.8806	30.09
38.8907	30.04
38.9009	30.25
38.9111	29.59
38.9212	30.23
38.9314	30.04
38.9416	30.03
38.9517	29.51
38.9619	29.34
38.9721	30.30
38.9822	30.11
38.9924	30.05
39.0025	29.82
39.0127	29.64
39.0229	29.32
39.033	29.29
39.0432	29.59
39.0534	29.68
39.0635	29.24
39.0737	29.53
39.0839	29.73
39.094	29.64
39.1042	29.30
39.1144	29.29
39.1245	28.85
39.1347	28.84
39.1449	29.34
39.155	28.58
39.1652	29.82
39.1753	29.10
39.1855	28.59
39.1957	29.61
39.2058	28.59
39.216	28.71
39.2262	28.40
39.2363	28.36
39.2465	28.10
39.2567	28.61
39.2668	28.70
39.277	28.62
39.2872	28.52
39.2973	28.15
39.3075	28.27
39.3176	28.24
39.3278	28.30
39.338	27.41
39.3481	27.51
39.3583	28.17
39.3685	28.83
39.3786	28.20
39.3888	27.80
39.399	27.88
39.4091	27.87
39.4193	27.96
39.4295	27.82
39.4396	27.74
39.4498	27.07
39.46	27.43
39.4701	27.56
39.4803	27.14
39.4904	27.73
39.5006	26.49
39.5108	27.25
39.5209	27.71
39.5311	26.93
39.5413	27.10
39.5514	26.87
39.5616	26.89
39.5718	26.34
39.5819	26.15
39.5921	27.01
39.6023	26.26
39.6124	26.55
39.6226	26.28
39.6327	26.49
39.6429	26.35
39.6531	25.79
39.6632	25.30
39.6734	26.59
39.6836	26.39
39.6937	25.96
39.7039	26.18
39.7141	25.90
39.7242	26.32
39.7344	26.02
39.7446	25.70
39.7547	26.01
39.7649	26.23
39.7751	25.80
39.7852	26.25
39.7954	25.90
39.8055	25.00
39.8157	25.90
39.8259	26.32
39.836	25.30
39.8462	25.81
39.8564	26.57
39.8665	25.59
39.8767	25.66
39.8869	25.18
39.897	25.56
39.9072	26.21
39.9174	25.48
39.9275	25.95
39.9377	25.71
39.9478	25.58
39.958	25.85
39.9682	25.41
39.9783	24.54
39.9885	25.70
39.9987	25.45
40.0088	25.49
