5.0023	55.28
5.0125	54.38
5.0226	52.26
5.0328	52.02
5.043	51.93
5.0531	51.03
5.0633	50.12
5.0735	48.98
5.0836	48.37
5.0938	48.07
5.1039	46.72
5.1141	46.74
5.1243	45.96
5.1344	44.59
5.1446	44.91
5.1548	44.09
5.1649	42.09
5.1751	42.61
5.1853	41.54
5.1954	42.84
5.2056	40.60
5.2158	39.52
5.2259	40.39
5.2361	39.15
5.2462	38.17
5.2564	37.32
5.2666	38.20
5.2767	36.17
5.2869	36.97
5.2971	36.53
5.3072	36.53
5.3174	35.60
5.3276	34.97
5.3377	34.93
5.3479	34.08
5.3581	34.60
5.3682	33.48
5.3784	33.19
5.3886	33.16
5.3987	31.93
5.4089	30.91
5.419	31.02
5.4292	30.97
5.4394	30.54
5.4495	30.25
5.4597	30.71
5.4699	29.80
5.48	30.05
5.4902	29.04
5.5004	28.46
5.5105	28.24
5.5207	28.51
5.5309	28.98
5.541	28.46
5.5512	27.78
5.5613	27.11
5.5715	28.10
5.5817	26.24
5.5918	27.21
5.602	27.02
5.6122	25.91
5.6223	26.54
5.6325	25.87
5.6427	25.54
5.6528	25.51
5.663	25.69
5.6732	25.40
5.6833	25.62
5.6935	25.28
5.7036	24.91
5.7138	24.53
5.724	24.32
5.7341	23.22
5.7443	24.81
5.7545	24.86
5.7646	24.17
5.7748	23.95
5.785	23.98
5.7951	23.53
5.8053	23.17
5.8155	24.15
5.8256	23.53
5.8358	23.37
5.846	23.89
5.8561	23.08
5.8663	23.16
5.8764	23.96
5.8866	23.24
5.8968	22.85
5.9069	22.95
5.9171	23.82
5.9273	23.60
5.9374	22.51
5.9476	23.34
5.9578	23.30
5.9679	23.49
5.9781	22.55
5.9883	23.29
5.9984	23.40
6.0086	22.76
6.0187	22.35
6.0289	22.54
6.0391	23.19
6.0492	22.42
6.0594	22.12
6.0696	22.26
6.0797	22.71
6.0899	22.81
6.1001	22.17
6.1102	22.27
6.1204	22.15
6.1306	21.85
6.1407	22.62
6.1509	21.83
6.1611	22.62
6.1712	23.09
6.1814	22.13
6.1915	21.99
6.2017	22.51
6.2119	22.71
6.222	22.79
6.2322	22.35
6.2424	22.13
6.2525	22.55
6.2627	22.81
6.2729	21.67
6.283	22.47
6.2932	22.38
6.3034	22.04
6.3135	22.69
6.3237	22.59
6.3338	22.32
6.344	22.32
6.3542	22.74
6.3643	21.95
6.3745	22.30
6.3847	21.76
6.3948	22.30
6.405	21.77
6.4152	22.01
6.4253	22.14
6.4355	22.94
6.4457	22.55
6.4558	22.34
6.466	21.95
6.4762	22.30
6.4863	22.56
6.4965	21.88
6.5066	21.78
6.5168	22.29
6.527	22.16
6.5371	22.18
6.5473	21.63
6.5575	22.53
6.5676	22.70
6.5778	22.65
6.588	22.84
6.5981	21.88
6.6083	22.36
6.6185	23.02
6.6286	22.55
6.6388	22.38
6.6489	23.15
6.6591	22.34
6.6693	22.15
6.6794	22.58
6.6896	22.71
6.6998	22.87
6.7099	22.26
6.7201	22.79
6.7303	22.26
6.7404	22.49
6.7506	23.07
6.7608	22.09
6.7709	22.30
6.7811	22.96
6.7913	21.92
6.8014	22.74
6.8116	23.15
6.8217	22.40
6.8319	22.89
6.8421	22.43
6.8522	22.99
6.8624	22.86
6.8726	23.14
6.8827	22.41
6.8929	22.45
6.9031	23.16
6.9132	21.45
6.9234	23.24
6.9336	22.26
6.9437	22.23
6.9539	23.40
6.964	22.63
6.9742	22.37
6.9844	23.62
6.9945	23.26
7.0047	22.90
7.0149	22.66
7.025	23.54
7.0352	23.26
7.0454	23.20
7.0555	22.88
7.0657	23.07
7.0759	23.09
7.086	23.56
7.0962	22.71
7.1064	23.69
7.1165	23.18
7.1267	23.66
7.1368	23.49
7.147	23.23
7.1572	23.77
7.1673	23.80
7.1775	23.14
7.1877	23.44
7.1978	23.76
7.208	22.64
7.2182	24.15
7.2283	24.00
7.2385	23.54
7.2487	23.51
7.2588	24.54
7.269	23.03
7.2791	23.69
7.2893	23.55
7.2995	22.84
7.3096	23.77
7.3198	24.43
7.33	23.95
7.3401	23.37
7.3503	24.59
7.3605	23.90
7.3706	22.91
7.3808	24.41
7.391	23.85
7.4011	23.81
7.4113	23.54
7.4215	23.97
7.4316	23.56
7.4418	23.60
7.4519	23.81
7.4621	23.38
7.4723	24.01
7.4824	23.96
7.4926	24.33
7.5028	23.43
7.5129	23.54
7.5231	24.93
7.5333	24.02
7.5434	23.85
7.5536	24.30
7.5638	24.72
7.5739	24.12
7.5841	24.91
7.5942	23.87
7.6044	23.83
7.6146	24.87
7.6247	24.79
7.6349	23.45
7.6451	24.63
7.6552	24.25
7.6654	24.06
7.6756	24.09
7.6857	24.34
7.6959	24.84
7.7061	24.54
7.7162	24.72
7.7264	24.09
7.7365	24.51
7.7467	24.38
7.7569	24.21
7.767	24.63
7.7772	24.40
7.7874	23.71
7.7975	24.77
7.8077	24.26
7.8179	23.64
7.828	24.92
7.8382	25.19
7.8484	24.84
7.8585	25.41
7.8687	24.99
7.8789	24.13
7.889	25.16
7.8992	24.84
7.9093	24.83
7.9195	25.19
7.9297	24.46
7.9398	25.21
7.95	24.38
7.9602	25.48
7.9703	24.57
7.9805	24.15
7.9907	25.16
8.0008	24.65
8.011	25.57
8.0212	25.11
8.0313	24.55
8.0415	24.96
8.0516	25.05
8.0618	24.73
8.072	25.26
8.0821	24.95
8.0923	24.65
8.1025	25.59
8.1126	24.76
8.1228	25.46
8.133	26.07
8.1431	25.35
8.1533	25.55
8.1635	25.07
8.1736	25.13
8.1838	25.57
8.194	26.60
8.2041	25.20
8.2143	25.90
8.2244	25.96
8.2346	26.57
8.2448	25.46
8.2549	25.65
8.2651	26.45
8.2753	25.40
8.2854	25.46
8.2956	25.74
8.3058	25.50
8.3159	26.80
8.3261	26.40
8.3363	25.96
8.3464	26.46
8.3566	26.26
8.3667	25.95
8.3769	26.43
8.3871	25.91
8.3972	26.07
8.4074	26.49
8.4176	25.98
8.4277	25.83
8.4379	25.53
8.4481	26.53
8.4582	26.65
8.4684	26.76
8.4786	26.03
8.4887	26.14
8.4989	26.78
8.5091	26.54
8.5192	26.11
8.5294	26.65
8.5395	26.13
8.5497	25.74
8.5599	26.46
8.57	26.21
8.5802	26.38
8.5904	26.04
8.6005	26.71
8.6107	25.72
8.6209	26.91
8.631	26.06
8.6412	25.89
8.6514	26.74
8.6615	26.24
8.6717	26.21
8.6818	26.35
8.692	25.95
8.7022	26.16
8.7123	26.66
8.7225	26.51
8.7327	26.03
8.7428	26.15
8.753	26.49
8.7632	27.46
8.7733	27.34
8.7835	27.50
8.7937	26.66
8.8038	26.96
8.814	26.96
8.8242	26.45
8.8343	27.34
8.8445	27.63
8.8546	26.43
8.8648	28.16
8.875	26.59
8.8851	26.95
8.8953	27.31
8.9055	26.51
8.9156	26.46
8.9258	26.95
8.936	27.84
8.9461	27.11
8.9563	27.12
8.9665	27.30
8.9766	27.46
8.9868	27.25
8.9969	26.19
9.0071	26.98
9.0173	26.80
9.0274	26.63
9.0376	26.32
9.0478	27.33
9.0579	27.40
9.0681	27.04
9.0783	27.60
9.0884	27.52
9.0986	26.87
9.1088	27.73
9.1189	27.75
9.1291	27.59
9.1393	27.77
9.1494	27.88
9.1596	27.28
9.1697	27.25
9.1799	27.70
9.1901	26.35
9.2002	27.59
9.2104	27.24
9.2206	27.19
9.2307	28.65
9.2409	27.18
9.2511	27.28
9.2612	28.22
9.2714	27.73
9.2816	27.98
9.2917	28.10
9.3019	28.25
9.312	27.30
9.3222	28.10
9.3324	28.77
9.3425	27.58
9.3527	29.03
9.3629	27.66
9.373	28.29
9.3832	27.27
9.3934	27.70
9.4035	27.87
9.4137	27.96
9.4239	28.23
9.434	27.78
9.4442	28.22
9.4544	28.32
9.4645	27.72
9.4747	28.18
9.4848	28.05
9.495	27.52
9.5052	28.34
9.5153	28.69
9.5255	27.89
9.5357	28.38
9.5458	28.73
9.556	28.26
9.5662	28.88
9.5763	28.70
9.5865	28.61
9.5967	28.90
9.6068	28.97
9.617	28.08
9.6271	28.98
9.6373	28.57
9.6475	28.96
9.6576	29.55
9.6678	28.68
9.678	29.29
9.6881	29.37
9.6983	28.16
9.7085	28.41
9.7186	29.16
9.7288	28.82
9.739	29.20
9.7491	29.34
9.7593	29.74
9.7694	29.08
9.7796	28.56
9.7898	28.88
9.7999	28.52
9.8101	28.82
9.8203	28.28
9.8304	29.87
9.8406	28.82
9.8508	28.84
9.8609	29.25
9.8711	28.70
9.8813	29.63
9.8914	29.41
9.9016	29.30
9.9118	29.30
9.9219	29.71
9.9321	29.62
9.9422	29.79
9.9524	28.70
9.9626	28.93
9.9727	29.18
9.9829	29.24
9.9931	29.97
10.0032	29.24
10.0134	29.30
10.0236	29.70
10.0337	29.73
10.0439	29.23
10.0541	29.79
10.0642	28.92
10.0744	29.16
10.0845	29.86
10.0947	30.09
10.1049	30.20
10.115	29.71
10.1252	29.03
10.1354	29.35
10.1455	29.89
10.1557	29.60
10.1659	29.35
10.176	29.08
10.1862	29.51
10.1964	30.13
10.2065	29.78
10.2167	30.43
10.2269	29.96
10.237	30.26
10.2472	29.66
10.2573	29.69
10.2675	30.44
10.2777	30.55
10.2878	30.13
10.298	30.73
10.3082	30.55
10.3183	29.41
10.3285	30.04
10.3387	29.81
10.3488	30.45
10.359	29.83
10.3692	28.93
10.3793	30.43
10.3895	30.62
10.3996	30.17
10.4098	31.05
10.42	30.21
10.4301	31.04
10.4403	30.65
10.4505	30.92
10.4606	30.95
10.4708	30.85
10.481	30.87
10.4911	30.04
10.5013	30.78
10.5115	30.96
10.5216	29.55
10.5318	31.43
10.542	31.06
10.5521	30.55
10.5623	31.05
10.5724	31.19
10.5826	31.03
10.5928	29.91
10.6029	30.88
10.6131	30.43
10.6233	31.18
10.6334	30.16
10.6436	30.49
10.6538	31.31
10.6639	30.95
10.6741	30.16
10.6843	31.15
10.6944	31.24
10.7046	31.05
10.7147	30.23
10.7249	31.03
10.7351	31.04
10.7452	30.65
10.7554	31.17
10.7656	31.54
10.7757	30.08
10.7859	31.79
10.7961	31.70
10.8062	30.82
10.8164	30.98
10.8266	32.12
10.8367	31.87
10.8469	30.79
10.8571	31.40
10.8672	31.37
10.8774	30.82
10.8875	31.21
10.8977	31.13
10.9079	31.22
10.918	31.13
10.9282	31.28
10.9384	31.63
10.9485	31.26
10.9587	31.68
10.9689	31.20
10.979	31.68
10.9892	31.63
10.9994	31.29
11.0095	32.55
11.0197	31.09
11.0298	30.89
11.04	31.76
11.0502	31.19
11.0603	31.56
11.0705	32.02
11.0807	32.65
11.0908	32.69
11.101	32.13
11.1112	31.84
11.1213	32.58
11.1315	32.02
11.1417	32.17
11.1518	32.20
11.162	31.79
11.1722	32.10
11.1823	32.35
11.1925	31.84
11.2026	31.79
11.2128	31.62
11.223	32.03
11.2331	32.54
11.2433	31.04
11.2535	32.29
11.2636	33.01
11.2738	32.17
11.284	33.46
11.2941	32.15
11.3043	33.23
11.3145	32.31
11.3246	32.43
11.3348	32.24
11.3449	33.21
11.3551	32.32
11.3653	33.53
11.3754	32.89
11.3856	33.14
11.3958	33.60
11.4059	33.28
11.4161	32.00
11.4263	32.60
11.4364	33.63
11.4466	32.40
11.4568	32.65
11.4669	33.38
11.4771	32.83
11.4873	33.71
11.4974	33.73
11.5076	32.68
11.5177	33.89
11.5279	32.81
11.5381	33.24
11.5482	33.82
11.5584	32.06
11.5686	32.97
11.5787	33.85
11.5889	33.02
11.5991	33.45
11.6092	33.42
11.6194	33.97
11.6296	33.51
11.6397	33.31
11.6499	33.98
11.66	33.54
11.6702	33.60
11.6804	33.77
11.6905	34.42
11.7007	34.15
11.7109	33.80
11.721	34.71
11.7312	34.21
11.7414	33.32
11.7515	33.66
11.7617	34.68
11.7719	34.30
11.782	34.20
11.7922	33.96
11.8023	34.50
11.8125	34.88
11.8227	33.79
11.8328	34.64
11.843	33.94
11.8532	34.82
11.8633	34.66
11.8735	34.33
11.8837	34.52
11.8938	35.79
11.904	34.58
11.9142	34.09
11.9243	34.23
11.9345	34.59
11.9447	34.43
11.9548	35.44
11.965	35.38
11.9751	35.33
11.9853	34.34
11.9955	34.73
12.0056	35.65
12.0158	34.72
12.026	35.68
12.0361	34.52
12.0463	35.13
12.0565	34.80
12.0666	35.15
12.0768	35.69
12.087	34.63
12.0971	35.84
12.1073	36.15
12.1174	35.16
12.1276	35.45
12.1378	35.23
12.1479	35.40
12.1581	35.80
12.1683	35.94
12.1784	35.74
12.1886	35.52
12.1988	35.91
12.2089	35.87
12.2191	36.63
12.2293	35.83
12.2394	34.94
12.2496	35.69
12.2598	35.40
12.2699	36.20
12.2801	35.78
12.2902	36.31
12.3004	35.91
12.3106	36.26
12.3207	35.34
12.3309	36.73
12.3411	37.36
12.3512	34.65
12.3614	36.23
12.3716	36.32
12.3817	36.05
12.3919	36.31
12.4021	36.31
12.4122	36.25
12.4224	36.27
12.4325	36.16
12.4427	36.61
12.4529	37.03
12.463	37.60
12.4732	36.65
12.4834	37.26
12.4935	37.57
12.5037	37.15
12.5139	37.09
12.524	36.65
12.5342	36.71
12.5444	37.79
12.5545	37.77
12.5647	37.42
12.5749	38.22
12.585	37.53
12.5952	37.88
12.6053	37.21
12.6155	37.60
12.6257	38.32
12.6358	37.31
12.646	37.93
12.6562	37.47
12.6663	37.36
12.6765	37.71
12.6867	38.12
12.6968	38.15
12.707	38.46
12.7172	37.66
12.7273	38.22
12.7375	38.06
12.7476	37.51
12.7578	37.57
12.768	38.04
12.7781	38.06
12.7883	39.54
12.7985	38.32
12.8086	38.20
12.8188	38.96
12.829	38.94
12.8391	38.98
12.8493	38.95
12.8595	38.49
12.8696	39.07
12.8798	39.27
12.89	39.66
12.9001	38.45
12.9103	39.09
12.9204	40.24
12.9306	38.62
12.9408	39.60
12.9509	38.52
12.9611	38.87
12.9713	39.04
12.9814	39.93
12.9916	39.97
13.0018	38.50
13.0119	40.13
13.0221	40.39
13.0323	39.92
13.0424	40.33
13.0526	40.44
13.0627	40.02
13.0729	39.17
13.0831	40.15
13.0932	40.94
13.1034	41.02
13.1136	39.82
13.1237	39.98
13.1339	40.13
13.1441	40.93
13.1542	40.82
13.1644	41.92
13.1746	41.06
13.1847	41.08
13.1949	40.68
13.2051	40.36
13.2152	40.65
13.2254	40.95
13.2355	41.62
13.2457	41.23
13.2559	41.97
13.266	41.10
13.2762	41.23
13.2864	40.15
13.2965	41.36
13.3067	41.74
13.3169	41.62
13.327	41.84
13.3372	41.82
13.3474	41.51
13.3575	41.80
13.3677	42.08
13.3778	41.37
13.388	42.48
13.3982	42.12
13.4083	42.48
13.4185	42.35
13.4287	42.12
13.4388	42.58
13.449	42.39
13.4592	43.40
13.4693	42.79
13.4795	43.50
13.4897	42.54
13.4998	42.46
13.51	42.55
13.5201	42.64
13.5303	43.21
13.5405	42.43
13.5506	41.91
13.5608	42.92
13.571	42.73
13.5811	43.32
13.5913	43.79
13.6015	43.10
13.6116	43.90
13.6218	42.56
13.632	43.92
13.6421	43.62
13.6523	44.15
13.6625	43.66
13.6726	44.68
13.6828	44.93
13.6929	44.34
13.7031	45.04
13.7133	44.70
13.7234	44.12
13.7336	44.84
13.7438	45.34
13.7539	45.26
13.7641	45.01
13.7743	45.65
13.7844	45.68
13.7946	45.18
13.8048	45.12
13.8149	45.20
13.8251	45.48
13.8352	45.96
13.8454	46.09
13.8556	45.61
13.8657	45.46
13.8759	46.04
13.8861	46.22
13.8962	46.84
13.9064	46.31
13.9166	47.20
13.9267	44.98
13.9369	46.19
13.9471	46.20
13.9572	46.36
13.9674	46.05
13.9776	47.09
13.9877	46.31
13.9979	46.91
14.008	47.55
14.0182	46.24
14.0284	47.37
14.0385	47.20
14.0487	46.40
14.0589	46.61
14.069	46.73
14.0792	47.13
14.0894	46.91
14.0995	47.01
14.1097	48.40
14.1199	47.15
14.13	48.30
14.1402	47.25
14.1503	46.90
14.1605	48.92
14.1707	48.22
14.1808	47.45
14.191	48.59
14.2012	48.54
14.2113	48.28
14.2215	48.70
14.2317	48.87
14.2418	49.02
14.252	49.59
14.2622	48.68
14.2723	49.71
14.2825	50.34
14.2927	50.40
14.3028	50.14
14.313	50.09
14.3231	49.87
14.3333	49.40
14.3435	50.78
14.3536	51.23
14.3638	50.20
14.374	50.80
14.3841	50.01
14.3943	49.85
14.4045	51.79
14.4146	51.20
14.4248	51.29
14.435	50.01
14.4451	50.45
14.4553	51.51
14.4654	51.56
14.4756	51.57
14.4858	51.21
14.4959	51.29
14.5061	52.03
14.5163	51.89
14.5264	52.58
14.5366	52.92
14.5468	52.70
14.5569	52.60
14.5671	52.34
14.5773	51.81
14.5874	53.45
14.5976	52.51
14.6078	53.34
14.6179	53.55
14.6281	52.33
14.6382	52.91
14.6484	54.31
14.6586	53.45
14.6687	53.63
14.6789	54.52
14.6891	53.61
14.6992	53.30
14.7094	55.64
14.7196	53.82
14.7297	54.49
14.7399	53.29
14.7501	54.24
14.7602	53.60
14.7704	54.50
14.7805	54.69
14.7907	54.15
14.8009	55.83
14.811	53.46
14.8212	55.31
14.8314	55.41
14.8415	55.30
14.8517	54.34
14.8619	55.15
14.872	55.06
14.8822	56.31
14.8924	55.47
14.9025	56.17
14.9127	55.58
14.9229	56.51
14.933	55.45
14.9432	55.97
14.9533	56.68
14.9635	56.70
14.9737	56.67
14.9838	56.01
14.994	57.51
15.0042	58.20
15.0143	56.71
15.0245	57.65
15.0347	56.79
15.0448	58.43
15.055	57.41
15.0652	57.51
15.0753	58.47
15.0855	57.76
15.0956	57.99
15.1058	59.60
15.116	57.65
15.1261	59.12
15.1363	59.71
15.1465	58.69
15.1566	59.46
15.1668	58.65
15.177	60.12
15.1871	61.02
15.1973	59.54
15.2075	59.52
15.2176	59.32
15.2278	59.33
15.238	60.27
15.2481	59.95
15.2583	60.68
15.2684	61.16
15.2786	60.41
15.2888	60.27
15.2989	60.21
15.3091	59.92
15.3193	61.45
15.3294	61.46
15.3396	61.00
15.3498	62.20
15.3599	61.68
15.3701	60.34
15.3803	62.18
15.3904	61.74
15.4006	61.18
15.4107	62.22
15.4209	62.29
15.4311	61.85
15.4412	62.23
15.4514	64.54
15.4616	64.58
15.4717	64.62
15.4819	64.18
15.4921	63.57
15.5022	63.63
15.5124	62.80
15.5226	63.65
15.5327	64.76
15.5429	64.49
15.553	63.73
15.5632	64.32
15.5734	62.34
15.5835	64.25
15.5937	64.00
15.6039	65.02
15.614	67.23
15.6242	64.50
15.6344	64.99
15.6445	65.84
15.6547	66.35
15.6649	66.68
15.675	65.83
15.6852	65.84
15.6954	65.35
15.7055	66.44
15.7157	66.52
15.7258	66.30
15.736	65.95
15.7462	66.56
15.7563	66.70
15.7665	69.44
15.7767	68.37
15.7868	68.25
15.797	67.20
15.8072	67.72
15.8173	67.21
15.8275	68.33
15.8377	68.03
15.8478	69.32
15.858	69.32
15.8681	69.21
15.8783	68.32
15.8885	68.38
15.8986	69.09
15.9088	69.82
15.919	68.42
15.9291	70.18
15.9393	70.15
15.9495	70.06
15.9596	70.06
15.9698	69.88
15.98	70.98
15.9901	71.27
16.0003	71.76
16.0105	70.45
16.0206	71.55
16.0308	71.04
16.0409	71.30
16.0511	72.66
16.0613	71.13
16.0714	73.77
16.0816	71.90
16.0918	72.77
16.1019	72.65
16.1121	74.02
16.1223	73.24
16.1324	73.37
16.1426	73.77
16.1528	73.71
16.1629	74.75
16.1731	73.96
16.1832	73.77
16.1934	74.32
16.2036	73.06
16.2137	74.63
16.2239	74.46
16.2341	74.67
16.2442	74.43
16.2544	74.24
16.2646	76.23
16.2747	75.66
16.2849	76.07
16.2951	76.52
16.3052	75.38
16.3154	76.48
16.3256	77.14
16.3357	75.81
16.3459	77.35
16.356	76.30
16.3662	78.15
16.3764	77.12
16.3865	77.98
16.3967	78.27
16.4069	78.48
16.417	78.27
16.4272	77.80
16.4374	78.20
16.4475	78.97
16.4577	79.13
16.4679	77.93
16.478	78.62
16.4882	79.93
16.4983	79.12
16.5085	80.56
16.5187	79.60
16.5288	79.91
16.539	82.12
16.5492	80.32
16.5593	80.74
16.5695	80.96
16.5797	80.95
16.5898	80.23
16.6	82.51
16.6102	81.94
16.6203	82.23
16.6305	80.42
16.6407	81.15
16.6508	83.62
16.661	83.97
16.6711	82.54
16.6813	83.71
16.6915	84.16
16.7016	83.13
16.7118	83.73
16.722	84.13
16.7321	82.88
16.7423	84.26
16.7525	86.24
16.7626	84.95
16.7728	86.26
16.783	83.89
16.7931	85.48
16.8033	85.57
16.8134	86.68
16.8236	85.92
16.8338	87.09
16.8439	86.37
16.8541	88.09
16.8643	87.18
16.8744	87.60
16.8846	88.35
16.8948	89.22
16.9049	90.10
16.9151	88.68
16.9253	88.63
16.9354	88.71
16.9456	89.03
16.9558	88.55
16.9659	88.65
16.9761	89.94
16.9862	89.47
16.9964	89.53
17.0066	91.22
17.0167	89.70
17.0269	91.13
17.0371	91.13
17.0472	89.41
17.0574	92.34
17.0676	90.73
17.0777	90.49
17.0879	91.58
17.0981	91.65
17.1082	93.18
17.1184	91.04
17.1285	92.13
17.1387	92.00
17.1489	92.14
17.159	90.88
17.1692	91.50
17.1794	93.70
17.1895	91.63
17.1997	94.77
17.2099	93.35
17.22	93.56
17.2302	94.04
17.2404	92.96
17.2505	93.43
17.2607	95.36
17.2709	93.89
17.281	94.32
17.2912	95.01
17.3013	95.51
17.3115	94.90
17.3217	95.89
17.3318	96.12
17.342	96.14
17.3522	95.05
17.3623	95.68
17.3725	97.34
17.3827	97.12
17.3928	98.27
17.403	95.27
17.4132	97.53
17.4233	98.96
17.4335	97.71
17.4436	99.26
17.4538	100.11
17.464	97.82
17.4741	98.57
17.4843	98.54
17.4945	98.92
17.5046	100.00
17.5148	99.46
17.525	99.17
17.5351	98.80
17.5453	100.45
17.5555	100.59
17.5656	99.38
17.5758	100.94
17.5859	99.14
17.5961	102.02
17.6063	102.49
17.6164	101.72
17.6266	100.72
17.6368	101.94
17.6469	102.41
17.6571	103.04
17.6673	103.19
17.6774	102.73
17.6876	102.62
17.6978	104.84
17.7079	103.95
17.7181	104.46
17.7283	106.32
17.7384	104.65
17.7486	105.34
17.7587	107.99
17.7689	105.60
17.7791	108.63
17.7892	107.24
17.7994	108.29
17.8096	108.10
17.8197	108.07
17.8299	108.32
17.8401	109.47
17.8502	108.30
17.8604	110.91
17.8706	110.05
17.8807	111.25
17.8909	109.77
17.901	111.77
17.9112	112.47
17.9214	112.80
17.9315	114.26
17.9417	114.77
17.9519	113.61
17.962	115.32
17.9722	116.09
17.9824	117.79
17.9925	115.18
18.0027	117.95
18.0129	117.46
18.023	118.74
18.0332	119.54
18.0434	118.40
18.0535	120.10
18.0637	123.36
18.0738	122.82
18.084	122.93
18.0942	125.15
18.1043	123.30
18.1145	123.65
18.1247	127.84
18.1348	125.38
18.145	126.97
18.1552	130.10
18.1653	130.35
18.1755	131.36
18.1857	134.13
18.1958	132.10
18.206	134.02
18.2161	138.05
18.2263	135.39
18.2365	136.70
18.2466	140.98
18.2568	141.59
18.267	142.71
18.2771	144.87
18.2873	147.02
18.2975	146.42
18.3076	147.65
18.3178	150.09
18.328	151.71
18.3381	154.26
18.3483	157.04
18.3585	155.84
18.3686	161.07
18.3788	163.20
18.3889	164.69
18.3991	168.34
18.4093	168.20
18.4194	171.77
18.4296	173.52
18.4398	175.40
18.4499	177.21
18.4601	180.41
18.4703	185.96
18.4804	185.05
18.4906	190.23
18.5008	193.29
18.5109	195.45
18.5211	196.96
18.5312	201.12
18.5414	203.54
18.5516	207.63
18.5617	210.72
18.5719	211.88
18.5821	216.84
18.5922	220.89
18.6024	220.95
18.6126	225.59
18.6227	226.78
18.6329	228.56
18.6431	232.57
18.6532	237.32
18.6634	236.32
18.6736	240.31
18.6837	240.70
18.6939	242.15
18.704	247.10
18.7142	249.33
18.7244	247.19
18.7345	249.77
18.7447	252.64
18.7549	253.09
18.765	250.81
18.7752	255.82
18.7854	252.15
18.7955	253.20
18.8057	254.10
18.8159	253.99
18.826	254.46
18.8362	252.29
18.8463	250.26
18.8565	249.04
18.8667	250.27
18.8768	246.68
18.887	246.85
18.8972	244.53
18.9073	239.27
18.9175	237.14
18.9277	236.84
18.9378	233.44
18.948	232.27
18.9582	230.37
18.9683	226.41
18.9785	221.83
18.9887	220.06
18.9988	217.27
19.009	213.16
19.0191	211.89
19.0293	206.97
19.0395	204.75
19.0496	203.24
19.0598	199.32
19.07	196.60
19.0801	194.63
19.0903	189.93
19.1005	186.46
19.1106	186.51
19.1208	181.41
19.131	182.27
19.1411	179.70
19.1513	174.30
19.1614	174.11
19.1716	170.20
19.1818	169.30
19.1919	166.85
19.2021	165.00
19.2123	161.77
19.2224	162.92
19.2326	159.62
19.2428	157.55
19.2529	155.85
19.2631	153.67
19.2733	152.21
19.2834	151.68
19.2936	148.24
19.3038	148.27
19.3139	147.04
19.3241	143.01
19.3342	143.00
19.3444	142.63
19.3546	140.63
19.3647	138.18
19.3749	140.18
19.3851	137.14
19.3952	136.91
19.4054	137.17
19.4156	132.98
19.4257	133.22
19.4359	133.00
19.4461	133.17
19.4562	130.04
19.4664	131.85
19.4765	129.46
19.4867	129.04
19.4969	128.99
19.507	127.90
19.5172	125.46
19.5274	128.55
19.5375	126.70
19.5477	125.94
19.5579	124.21
19.568	122.46
19.5782	123.04
19.5884	123.88
19.5985	122.99
19.6087	122.13
19.6188	122.30
19.629	120.93
19.6392	121.13
19.6493	123.48
19.6595	119.59
19.6697	121.29
19.6798	120.58
19.69	119.56
19.7002	120.48
19.7103	119.46
19.7205	119.61
19.7307	119.95
19.7408	118.55
19.751	120.37
19.7612	117.37
19.7713	118.87
19.7815	117.41
19.7916	116.29
19.8018	118.45
19.812	118.05
19.8221	116.58
19.8323	117.79
19.8425	116.67
19.8526	116.76
19.8628	117.35
19.873	116.13
19.8831	117.39
19.8933	116.54
19.9035	116.03
19.9136	114.34
19.9238	117.84
19.9339	115.80
19.9441	116.73
19.9543	117.27
19.9644	115.79
19.9746	116.54
19.9848	116.62
19.9949	116.86
20.0051	117.41
20.0153	117.71
20.0254	117.62
20.0356	117.19
20.0458	115.65
20.0559	118.62
20.0661	118.07
20.0763	117.37
20.0864	118.12
20.0966	118.07
20.1067	119.84
20.1169	119.34
20.1271	116.02
20.1372	119.92
20.1474	118.33
20.1576	120.20
20.1677	117.74
20.1779	118.84
20.1881	118.19
20.1982	121.86
20.2084	119.71
20.2186	118.85
20.2287	120.48
20.2389	122.10
20.249	120.07
20.2592	122.01
20.2694	120.76
20.2795	122.15
20.2897	123.67
20.2999	122.72
20.31	121.41
20.3202	125.41
20.3304	126.20
20.3405	123.18
20.3507	125.52
20.3609	125.77
20.371	125.07
20.3812	126.98
20.3914	127.55
20.4015	126.77
20.4117	127.84
20.4218	129.43
20.432	129.01
20.4422	128.46
20.4523	130.23
20.4625	129.91
20.4727	129.51
20.4828	131.42
20.493	131.15
20.5032	132.58
20.5133	132.84
20.5235	131.30
20.5337	133.76
20.5438	133.62
20.554	132.83
20.5641	136.54
20.5743	134.38
20.5845	133.74
20.5946	135.73
20.6048	134.94
20.615	134.74
20.6251	135.20
20.6353	135.24
20.6455	135.82
20.6556	137.98
20.6658	137.74
20.676	134.61
20.6861	136.91
20.6963	137.90
20.7065	136.99
20.7166	137.62
20.7268	138.00
20.7369	137.73
20.7471	137.23
20.7573	137.62
20.7674	136.70
20.7776	138.05
20.7878	138.26
20.7979	139.35
20.8081	137.20
20.8183	137.57
20.8284	136.25
20.8386	138.25
20.8488	135.95
20.8589	134.72
20.8691	134.43
20.8792	134.59
20.8894	131.27
20.8996	134.68
20.9097	134.75
20.9199	131.87
20.9301	132.06
20.9402	132.72
20.9504	130.04
20.9606	131.26
20.9707	130.04
20.9809	129.95
20.9911	129.58
21.0012	128.04
21.0114	127.53
21.0216	126.32
21.0317	124.54
21.0419	123.88
21.052	125.69
21.0622	122.70
21.0724	122.84
21.0825	123.50
21.0927	120.48
21.1029	118.51
21.113	122.46
21.1232	121.29
21.1334	118.68
21.1435	118.78
21.1537	118.03
21.1639	115.96
21.174	119.45
21.1842	115.10
21.1943	115.35
21.2045	116.40
21.2147	114.08
21.2248	114.32
21.235	112.31
21.2452	114.45
21.2553	111.96
21.2655	112.85
21.2757	112.45
21.2858	109.91
21.296	111.08
21.3062	110.83
21.3163	108.27
21.3265	110.88
21.3366	109.96
21.3468	108.57
21.357	110.69
21.3671	108.00
21.3773	107.61
21.3875	108.66
21.3976	108.77
21.4078	105.93
21.418	107.95
21.4281	105.57
21.4383	105.65
21.4485	107.26
21.4586	106.13
21.4688	105.68
21.479	106.50
21.4891	106.92
21.4993	105.18
21.5094	105.96
21.5196	106.50
21.5298	104.21
21.5399	106.17
21.5501	104.44
21.5603	105.26
21.5704	105.55
21.5806	105.45
21.5908	105.04
21.6009	105.24
21.6111	107.26
21.6213	103.24
21.6314	106.04
21.6416	104.99
21.6517	104.99
21.6619	104.71
21.6721	105.39
21.6822	103.18
21.6924	105.74
21.7026	106.76
21.7127	107.55
21.7229	106.59
21.7331	107.54
21.7432	107.34
21.7534	105.82
21.7636	107.21
21.7737	106.88
21.7839	109.10
21.7941	109.12
21.8042	106.79
21.8144	109.54
21.8245	111.02
21.8347	110.95
21.8449	112.37
21.855	111.73
21.8652	112.41
21.8754	114.16
21.8855	114.68
21.8957	114.51
21.9059	115.05
21.916	116.83
21.9262	115.84
21.9364	117.66
21.9465	118.84
21.9567	118.68
21.9668	121.10
21.977	122.68
21.9872	121.98
21.9973	123.40
22.0075	125.59
22.0177	121.78
22.0278	124.38
22.038	124.45
22.0482	125.11
22.0583	127.21
22.0685	128.98
22.0787	125.87
22.0888	127.26
22.099	129.13
22.1092	130.95
22.1193	131.32
22.1295	132.53
22.1396	129.85
22.1498	133.51
22.16	136.62
22.1701	134.60
22.1803	135.74
22.1905	135.45
22.2006	137.12
22.2108	138.08
22.221	139.04
22.2311	139.26
22.2413	141.61
22.2515	141.70
22.2616	140.49
22.2718	144.40
22.2819	144.90
22.2921	145.18
22.3023	146.99
22.3124	146.71
22.3226	146.55
22.3328	149.16
22.3429	149.53
22.3531	150.73
22.3633	152.27
22.3734	152.38
22.3836	150.26
22.3938	154.62
22.4039	155.27
22.4141	153.96
22.4243	157.08
22.4344	157.85
22.4446	156.46
22.4547	158.59
22.4649	158.76
22.4751	159.30
22.4852	158.87
22.4954	161.18
22.5056	159.45
22.5157	161.92
22.5259	163.24
22.5361	159.72
22.5462	160.31
22.5564	161.54
22.5666	160.57
22.5767	162.29
22.5869	162.23
22.597	162.79
22.6072	160.51
22.6174	161.44
22.6275	159.98
22.6377	162.19
22.6479	162.04
22.658	160.16
22.6682	159.86
22.6784	159.78
22.6885	158.34
22.6987	155.99
22.7089	158.38
22.719	156.41
22.7292	156.90
22.7394	155.84
22.7495	156.20
22.7597	154.09
22.7698	153.49
22.78	152.86
22.7902	150.87
22.8003	153.20
22.8105	152.35
22.8207	150.41
22.8308	149.92
22.841	147.43
22.8512	147.98
22.8613	146.45
22.8715	144.59
22.8817	144.80
22.8918	145.62
22.902	141.73
22.9121	141.53
22.9223	139.49
22.9325	138.12
22.9426	138.63
22.9528	137.32
22.963	136.04
22.9731	134.91
22.9833	136.10
22.9935	132.23
23.0036	134.15
23.0138	130.41
23.024	129.41
23.0341	128.88
23.0443	129.53
23.0545	125.67
23.0646	127.15
23.0748	125.73
23.0849	124.71
23.0951	123.34
23.1053	123.11
23.1154	122.79
23.1256	120.43
23.1358	118.89
23.1459	117.01
23.1561	118.63
23.1663	116.30
23.1764	114.52
23.1866	114.72
23.1968	114.84
23.2069	113.16
23.2171	111.68
23.2272	110.68
23.2374	110.46
23.2476	109.22
23.2577	109.01
23.2679	107.51
23.2781	107.29
23.2882	106.41
23.2984	103.87
23.3086	105.55
23.3187	102.93
23.3289	102.62
23.3391	101.50
23.3492	102.83
23.3594	99.70
23.3695	99.18
23.3797	99.66
23.3899	98.91
23.4	97.65
23.4102	98.66
23.4204	97.53
23.4305	96.53
23.4407	95.40
23.4509	93.86
23.461	93.57
23.4712	93.65
23.4814	91.56
23.4915	90.96
23.5017	91.26
23.5119	90.22
23.522	90.70
23.5322	90.10
23.5423	88.32
23.5525	88.66
23.5627	87.88
23.5728	87.21
23.583	86.74
23.5932	85.39
23.6033	86.30
23.6135	84.39
23.6237	83.32
23.6338	84.40
23.644	84.30
23.6542	83.26
23.6643	82.07
23.6745	82.01
23.6846	81.62
23.6948	82.30
23.705	80.80
23.7151	81.29
23.7253	78.75
23.7355	79.81
23.7456	79.41
23.7558	79.52
23.766	78.43
23.7761	76.63
23.7863	78.13
23.7965	77.49
23.8066	75.46
23.8168	76.13
23.827	75.01
23.8371	75.10
23.8473	75.70
23.8574	75.26
23.8676	74.13
23.8778	73.87
23.8879	73.46
23.8981	72.70
23.9083	71.79
23.9184	71.81
23.9286	70.84
23.9388	71.34
23.9489	71.42
23.9591	70.30
23.9693	70.58
23.9794	70.08
23.9896	69.97
23.9997	69.15
24.0099	70.20
24.0201	70.16
24.0302	68.69
24.0404	69.21
24.0506	68.30
24.0607	67.94
24.0709	68.65
24.0811	68.28
24.0912	66.95
24.1014	67.20
24.1116	66.02
24.1217	65.91
24.1319	66.59
24.1421	65.06
24.1522	66.10
24.1624	65.47
24.1725	65.66
24.1827	65.73
24.1929	65.26
24.203	65.20
24.2132	64.79
24.2234	65.06
24.2335	64.07
24.2437	63.75
24.2539	63.02
24.264	63.03
24.2742	63.80
24.2844	62.20
24.2945	63.65
24.3047	62.43
24.3148	63.20
24.325	62.49
24.3352	63.03
24.3453	61.41
24.3555	61.26
24.3657	62.31
24.3758	61.18
24.386	61.07
24.3962	61.63
24.4063	60.23
24.4165	61.47
24.4267	60.19
24.4368	60.81
24.447	60.84
24.4572	61.73
24.4673	60.22
24.4775	60.30
24.4876	58.57
24.4978	59.85
24.508	60.37
24.5181	59.73
24.5283	59.18
24.5385	59.12
24.5486	59.85
24.5588	60.20
24.569	59.83
24.5791	60.08
24.5893	59.38
24.5995	59.13
24.6096	58.40
24.6198	58.39
24.6299	58.18
24.6401	58.71
24.6503	59.55
24.6604	58.20
24.6706	58.79
24.6808	55.81
24.6909	58.32
24.7011	56.69
24.7113	58.26
24.7214	57.62
24.7316	58.03
24.7418	57.68
24.7519	57.62
24.7621	57.75
24.7723	57.16
24.7824	57.32
24.7926	56.16
24.8027	57.69
24.8129	56.91
24.8231	55.94
24.8332	57.22
24.8434	55.76
24.8536	55.70
24.8637	56.07
24.8739	55.54
24.8841	56.38
24.8942	54.59
24.9044	55.63
24.9146	55.18
24.9247	55.52
24.9349	55.21
24.945	55.11
24.9552	56.18
24.9654	54.88
24.9755	54.38
24.9857	54.57
24.9959	55.26
25.006	53.45
25.0162	54.61
25.0264	55.78
25.0365	54.97
25.0467	55.46
25.0569	54.88
25.067	54.84
25.0772	53.74
25.0874	55.46
25.0975	54.09
25.1077	54.98
25.1178	54.04
25.128	54.88
25.1382	55.18
25.1483	53.68
25.1585	53.49
25.1687	54.36
25.1788	54.23
25.189	52.78
25.1992	54.04
25.2093	53.63
25.2195	53.65
25.2297	53.41
25.2398	53.09
25.25	53.95
25.2601	52.38
25.2703	54.69
25.2805	53.13
25.2906	53.12
25.3008	52.85
25.311	52.31
25.3211	53.19
25.3313	53.21
25.3415	52.22
25.3516	53.34
25.3618	53.90
25.372	52.43
25.3821	52.82
25.3923	53.66
25.4024	52.50
25.4126	52.34
25.4228	52.24
25.4329	52.23
25.4431	53.41
25.4533	53.66
25.4634	52.51
25.4736	52.44
25.4838	52.34
25.4939	52.92
25.5041	53.49
25.5143	53.08
25.5244	52.15
25.5346	51.93
25.5448	52.16
25.5549	51.65
25.5651	52.24
25.5752	52.44
25.5854	51.68
25.5956	51.79
25.6057	51.52
25.6159	51.51
25.6261	50.64
25.6362	51.61
25.6464	52.43
25.6566	52.35
25.6667	52.41
25.6769	51.27
25.6871	51.62
25.6972	51.29
25.7074	50.85
25.7175	51.23
25.7277	52.34
25.7379	51.95
25.748	51.20
25.7582	50.07
25.7684	52.46
25.7785	51.55
25.7887	51.31
25.7989	50.99
25.809	50.55
25.8192	51.87
25.8294	50.95
25.8395	51.50
25.8497	51.26
25.8599	50.77
25.87	51.36
25.8802	50.86
25.8903	51.84
25.9005	49.52
25.9107	51.66
25.9208	49.84
25.931	49.83
25.9412	50.19
25.9513	49.65
25.9615	50.05
25.9717	50.58
25.9818	49.31
25.992	50.11
26.0022	50.94
26.0123	50.49
26.0225	50.61
26.0326	48.86
26.0428	50.51
26.053	50.57
26.0631	48.99
26.0733	49.82
26.0835	49.48
26.0936	49.42
26.1038	48.02
26.114	49.21
26.1241	49.54
26.1343	47.87
26.1445	47.42
26.1546	48.97
26.1648	48.62
26.175	48.73
26.1851	48.83
26.1953	47.34
26.2054	48.24
26.2156	49.17
26.2258	48.29
26.2359	49.41
26.2461	49.20
26.2563	48.09
26.2664	48.78
26.2766	47.90
26.2868	47.97
26.2969	48.40
26.3071	47.82
26.3173	47.34
26.3274	47.85
26.3376	47.74
26.3477	47.78
26.3579	45.95
26.3681	47.82
26.3782	48.77
26.3884	47.01
26.3986	48.40
26.4087	48.30
26.4189	47.68
26.4291	47.76
26.4392	46.70
26.4494	46.59
26.4596	48.16
26.4697	46.93
26.4799	47.38
26.4901	47.62
26.5002	45.93
26.5104	46.79
26.5205	47.28
26.5307	47.23
26.5409	47.24
26.551	48.04
26.5612	46.96
26.5714	46.24
26.5815	47.46
26.5917	46.48
26.6019	47.32
26.612	46.58
26.6222	46.01
26.6324	46.34
26.6425	46.65
26.6527	47.02
26.6628	46.32
26.673	46.38
26.6832	46.35
26.6933	46.09
26.7035	47.26
26.7137	46.56
26.7238	45.98
26.734	45.86
26.7442	47.27
26.7543	45.74
26.7645	46.19
26.7747	46.13
26.7848	46.31
26.795	45.92
26.8052	45.25
26.8153	45.94
26.8255	47.29
26.8356	46.13
26.8458	45.91
26.856	46.40
26.8661	46.29
26.8763	47.11
26.8865	45.63
26.8966	46.15
26.9068	45.70
26.917	45.64
26.9271	45.40
26.9373	44.02
26.9475	46.23
26.9576	45.04
26.9678	45.99
26.9779	45.48
26.9881	44.85
26.9983	47.23
27.0084	45.61
27.0186	46.19
27.0288	45.18
27.0389	46.49
27.0491	46.87
27.0593	45.22
27.0694	45.41
27.0796	45.35
27.0898	45.24
27.0999	45.35
27.1101	45.57
27.1202	45.48
27.1304	45.37
27.1406	44.16
27.1507	45.41
27.1609	45.40
27.1711	44.78
27.1812	44.51
27.1914	44.62
27.2016	43.78
27.2117	45.37
27.2219	45.26
27.2321	44.40
27.2422	44.91
27.2524	44.79
27.2626	45.32
27.2727	45.87
27.2829	44.29
27.293	45.18
27.3032	44.97
27.3134	46.07
27.3235	44.40
27.3337	45.12
27.3439	44.52
27.354	46.02
27.3642	44.95
27.3744	45.24
27.3845	44.73
27.3947	44.90
27.4049	45.66
27.415	45.66
27.4252	44.99
27.4353	46.30
27.4455	45.19
27.4557	45.25
27.4658	46.51
27.476	44.97
27.4862	45.60
27.4963	45.48
27.5065	45.41
27.5167	44.40
27.5268	44.88
27.537	44.73
27.5472	45.18
27.5573	45.16
27.5675	44.84
27.5777	45.95
27.5878	45.93
27.598	46.01
27.6081	45.86
27.6183	45.91
27.6285	46.29
27.6386	45.79
27.6488	46.91
27.659	45.23
27.6691	45.66
27.6793	45.27
27.6895	45.78
27.6996	45.87
27.7098	47.05
27.72	46.28
27.7301	46.99
27.7403	45.87
27.7504	46.62
27.7606	46.86
27.7708	47.70
27.7809	46.60
27.7911	47.20
27.8013	47.85
27.8114	46.95
27.8216	47.62
27.8318	48.27
27.8419	47.62
27.8521	47.54
27.8623	49.61
27.8724	47.60
27.8826	48.36
27.8928	48.89
27.9029	47.82
27.9131	48.69
27.9232	49.71
27.9334	49.73
27.9436	49.12
27.9537	50.18
27.9639	49.09
27.9741	49.39
27.9842	49.98
27.9944	50.76
28.0046	50.55
28.0147	50.60
28.0249	50.89
28.0351	50.79
28.0452	51.25
28.0554	52.90
28.0655	52.72
28.0757	53.57
28.0859	53.77
28.096	54.13
28.1062	53.87
28.1164	53.39
28.1265	55.15
28.1367	55.16
28.1469	54.59
28.157	54.73
28.1672	56.13
28.1774	56.09
28.1875	56.40
28.1977	54.94
28.2079	57.79
28.218	58.82
28.2282	59.20
28.2383	58.66
28.2485	59.00
28.2587	59.69
28.2688	58.71
28.279	61.10
28.2892	60.67
28.2993	61.10
28.3095	61.72
28.3197	61.82
28.3298	63.04
28.34	63.18
28.3502	63.40
28.3603	62.07
28.3705	64.15
28.3806	64.34
28.3908	63.43
28.401	64.90
28.4111	64.80
28.4213	65.56
28.4315	65.85
28.4416	65.10
28.4518	66.31
28.462	64.70
28.4721	66.77
28.4823	67.88
28.4925	67.39
28.5026	67.92
28.5128	67.79
28.523	68.44
28.5331	68.78
28.5433	69.20
28.5534	67.91
28.5636	68.75
28.5738	69.21
28.5839	70.60
28.5941	69.42
28.6043	69.65
28.6144	69.20
28.6246	70.39
28.6348	70.27
28.6449	70.07
28.6551	70.38
28.6653	69.71
28.6754	70.63
28.6856	70.97
28.6957	69.85
28.7059	70.33
28.7161	69.24
28.7262	69.95
28.7364	69.82
28.7466	69.67
28.7567	70.70
28.7669	69.77
28.7771	69.49
28.7872	68.49
28.7974	68.98
28.8076	68.29
28.8177	68.17
28.8279	69.05
28.8381	67.54
28.8482	68.13
28.8584	67.04
28.8685	67.01
28.8787	67.38
28.8889	64.74
28.899	65.79
28.9092	66.09
28.9194	64.98
28.9295	64.71
28.9397	65.07
28.9499	63.84
28.96	63.85
28.9702	63.50
28.9804	63.93
28.9905	63.93
29.0007	62.41
29.0108	62.41
29.021	62.10
29.0312	61.64
29.0413	60.55
29.0515	59.99
29.0617	60.13
29.0718	58.87
29.082	59.11
29.0922	59.57
29.1023	58.87
29.1125	57.50
29.1227	58.57
29.1328	57.69
29.143	56.66
29.1531	57.39
29.1633	56.90
29.1735	55.84
29.1836	56.35
29.1938	54.42
29.204	54.43
29.2141	54.48
29.2243	55.31
29.2345	54.32
29.2446	53.85
29.2548	54.40
29.265	53.76
29.2751	52.41
29.2853	52.91
29.2955	52.21
29.3056	52.46
29.3158	51.87
29.3259	53.03
29.3361	52.09
29.3463	51.04
29.3564	51.63
29.3666	50.73
29.3768	50.18
29.3869	50.40
29.3971	49.21
29.4073	49.87
29.4174	49.26
29.4276	49.27
29.4378	48.81
29.4479	48.55
29.4581	48.71
29.4682	47.65
29.4784	48.06
29.4886	48.43
29.4987	46.95
29.5089	48.23
29.5191	47.34
29.5292	47.08
29.5394	46.55
29.5496	47.05
29.5597	46.65
29.5699	46.25
29.5801	46.74
29.5902	45.51
29.6004	45.18
29.6106	46.41
29.6207	45.56
29.6309	44.62
29.641	45.60
29.6512	44.63
29.6614	45.13
29.6715	44.70
29.6817	45.27
29.6919	44.08
29.702	44.82
29.7122	44.03
29.7224	44.03
29.7325	43.93
29.7427	44.31
29.7529	43.23
29.763	42.68
29.7732	44.01
29.7833	43.01
29.7935	44.18
29.8037	42.09
29.8138	42.30
29.824	43.77
29.8342	42.12
29.8443	42.85
29.8545	42.93
29.8647	42.73
29.8748	42.77
29.885	43.45
29.8952	42.12
29.9053	42.29
29.9155	41.86
29.9257	41.30
29.9358	41.97
29.946	42.06
29.9561	41.88
29.9663	40.96
29.9765	41.87
29.9866	41.67
29.9968	42.44
30.007	42.42
30.0171	41.37
30.0273	41.84
30.0375	40.76
30.0476	41.51
30.0578	41.49
30.068	42.18
30.0781	40.63
30.0883	41.30
30.0984	41.19
30.1086	41.51
30.1188	40.81
30.1289	40.64
30.1391	41.08
30.1493	41.21
30.1594	41.57
30.1696	39.94
30.1798	41.20
30.1899	39.68
30.2001	40.67
30.2103	41.90
30.2204	39.99
30.2306	40.24
30.2408	39.98
30.2509	40.65
30.2611	39.74
30.2712	39.59
30.2814	39.76
30.2916	39.71
30.3017	39.77
30.3119	39.65
30.3221	39.24
30.3322	39.09
30.3424	39.25
30.3526	38.85
30.3627	38.95
30.3729	39.08
30.3831	38.50
30.3932	38.91
30.4034	38.62
30.4135	37.95
30.4237	38.34
30.4339	38.26
30.444	38.81
30.4542	38.43
30.4644	38.04
30.4745	37.84
30.4847	37.96
30.4949	38.98
30.505	37.95
30.5152	38.30
30.5254	37.39
30.5355	37.68
30.5457	37.42
30.5559	37.93
30.566	36.77
30.5762	37.09
30.5863	37.01
30.5965	36.25
30.6067	36.76
30.6168	36.57
30.627	36.51
30.6372	36.49
30.6473	36.47
30.6575	36.34
30.6677	35.96
30.6778	35.33
30.688	36.16
30.6982	35.27
30.7083	35.82
30.7185	36.08
30.7286	35.50
30.7388	34.87
30.749	34.73
30.7591	34.48
30.7693	34.40
30.7795	34.79
30.7896	35.09
30.7998	34.96
30.81	34.95
30.8201	35.90
30.8303	35.07
30.8405	34.87
30.8506	34.90
30.8608	34.95
30.871	34.54
30.8811	34.03
30.8913	34.90
30.9014	34.34
30.9116	34.25
30.9218	34.24
30.9319	33.80
30.9421	33.73
30.9523	35.10
30.9624	33.41
30.9726	33.96
30.9828	34.09
30.9929	33.02
31.0031	34.24
31.0133	33.63
31.0234	32.88
31.0336	33.41
31.0437	34.09
31.0539	33.20
31.0641	33.44
31.0742	33.34
31.0844	33.41
31.0946	33.04
31.1047	33.71
31.1149	33.62
31.1251	33.31
31.1352	33.63
31.1454	31.90
31.1556	32.76
31.1657	33.16
31.1759	32.18
31.186	32.25
31.1962	33.17
31.2064	31.79
31.2165	33.06
31.2267	33.19
31.2369	32.96
31.247	33.17
31.2572	32.94
31.2674	31.97
31.2775	32.90
31.2877	32.80
31.2979	32.27
31.308	31.42
31.3182	32.18
31.3284	31.90
31.3385	32.59
31.3487	31.93
31.3588	31.21
31.369	32.01
31.3792	32.11
31.3893	31.08
31.3995	31.84
31.4097	32.88
31.4198	31.40
31.43	31.94
31.4402	31.43
31.4503	31.85
31.4605	31.34
31.4707	32.45
31.4808	32.03
31.491	31.27
31.5011	31.45
31.5113	31.70
31.5215	32.09
31.5316	31.66
31.5418	32.08
31.552	31.79
31.5621	31.49
31.5723	31.77
31.5825	31.61
31.5926	31.57
31.6028	31.09
31.613	31.92
31.6231	31.65
31.6333	31.43
31.6435	31.44
31.6536	31.77
31.6638	30.95
31.6739	31.19
31.6841	31.48
31.6943	31.51
31.7044	31.08
31.7146	31.71
31.7248	31.87
31.7349	31.04
31.7451	31.15
31.7553	30.88
31.7654	30.76
31.7756	31.39
31.7858	31.23
31.7959	30.54
31.8061	31.20
31.8162	30.66
31.8264	31.50
31.8366	31.04
31.8467	30.76
31.8569	31.34
31.8671	31.66
31.8772	30.97
31.8874	30.59
31.8976	31.48
31.9077	31.23
31.9179	31.07
31.9281	30.75
31.9382	31.20
31.9484	30.52
31.9586	31.46
31.9687	31.17
31.9789	30.52
31.989	31.40
31.9992	30.94
32.0094	30.18
32.0195	31.40
32.0297	30.66
32.0399	31.17
32.05	30.79
32.0602	30.32
32.0704	30.37
32.0805	31.43
32.0907	31.04
32.1009	31.82
32.111	31.23
32.1212	31.16
32.1313	30.84
32.1415	31.90
32.1517	30.51
32.1618	31.55
32.172	31.19
32.1822	30.80
32.1923	31.48
32.2025	30.85
32.2127	31.15
32.2228	31.21
32.233	31.91
32.2432	30.91
32.2533	31.24
32.2635	32.26
32.2737	31.77
32.2838	31.88
32.294	32.09
32.3041	31.13
32.3143	31.15
32.3245	31.65
32.3346	31.08
32.3448	31.58
32.355	31.49
32.3651	31.20
32.3753	32.01
32.3855	31.81
32.3956	31.71
32.4058	31.89
32.416	32.30
32.4261	31.40
32.4363	31.08
32.4464	32.00
32.4566	31.75
32.4668	31.01
32.4769	31.88
32.4871	31.30
32.4973	31.52
32.5074	31.94
32.5176	31.35
32.5278	31.48
32.5379	31.78
32.5481	31.68
32.5583	32.67
32.5684	31.40
32.5786	30.91
32.5888	32.65
32.5989	32.85
32.6091	31.24
32.6192	31.74
32.6294	32.95
32.6396	31.07
32.6497	31.43
32.6599	31.16
32.6701	31.49
32.6802	31.44
32.6904	31.97
32.7006	31.80
32.7107	32.08
32.7209	32.38
32.7311	31.57
32.7412	32.74
32.7514	31.78
32.7615	31.67
32.7717	31.77
32.7819	31.79
32.792	31.93
32.8022	32.55
32.8124	31.59
32.8225	31.08
32.8327	31.46
32.8429	32.11
32.853	31.14
32.8632	31.37
32.8734	30.70
32.8835	30.96
32.8937	31.74
32.9039	31.70
32.914	31.65
32.9242	31.77
32.9343	31.40
32.9445	30.82
32.9547	31.88
32.9648	30.97
32.975	32.34
32.9852	31.99
32.9953	31.73
33.0055	31.35
33.0157	32.08
33.0258	30.98
33.036	31.45
33.0462	31.25
33.0563	32.15
33.0665	31.19
33.0766	31.46
33.0868	31.20
33.097	31.42
33.1071	31.64
33.1173	31.17
33.1275	30.77
33.1376	31.30
33.1478	31.01
33.158	30.64
33.1681	32.69
33.1783	31.18
33.1885	31.51
33.1986	32.26
33.2088	31.66
33.2189	30.96
33.2291	32.22
33.2393	31.48
33.2494	31.07
33.2596	31.72
33.2698	31.36
33.2799	32.19
33.2901	31.34
33.3003	31.31
33.3104	31.85
33.3206	31.71
33.3308	31.59
33.3409	32.03
33.3511	32.01
33.3613	32.26
33.3714	31.35
33.3816	31.97
33.3917	32.43
33.4019	32.27
33.4121	31.29
33.4222	31.64
33.4324	32.43
33.4426	31.88
33.4527	31.83
33.4629	31.50
33.4731	31.59
33.4832	31.80
33.4934	32.48
33.5036	32.09
33.5137	31.44
33.5239	31.63
33.534	31.63
33.5442	31.68
33.5544	31.70
33.5645	31.68
33.5747	31.37
33.5849	32.10
33.595	31.82
33.6052	32.67
33.6154	31.55
33.6255	32.09
33.6357	31.75
33.6459	30.54
33.656	31.80
33.6662	31.10
33.6764	30.57
33.6865	31.49
33.6967	31.84
33.7068	30.79
33.717	30.55
33.7272	30.98
33.7373	30.59
33.7475	30.07
33.7577	30.13
33.7678	30.71
33.778	30.01
33.7882	30.15
33.7983	30.05
33.8085	30.33
33.8187	29.81
33.8288	30.12
33.839	29.02
33.8491	29.91
33.8593	30.30
33.8695	29.82
33.8796	29.49
33.8898	29.78
33.9	28.89
33.9101	29.23
33.9203	29.80
33.9305	29.02
33.9406	29.08
33.9508	28.87
33.961	28.65
33.9711	28.91
33.9813	28.68
33.9915	27.94
34.0016	28.21
34.0118	28.82
34.0219	29.02
34.0321	28.47
34.0423	27.73
34.0524	28.64
34.0626	27.63
34.0728	27.38
34.0829	27.27
34.0931	27.68
34.1033	28.14
34.1134	27.85
34.1236	28.15
34.1338	27.20
34.1439	27.40
34.1541	26.73
34.1642	27.58
34.1744	26.56
34.1846	27.94
34.1947	26.96
34.2049	26.74
34.2151	27.16
34.2252	26.08
34.2354	25.93
34.2456	26.42
34.2557	27.03
34.2659	26.01
34.2761	26.87
34.2862	26.62
34.2964	26.41
34.3066	26.43
34.3167	26.41
34.3269	26.14
34.337	25.82
34.3472	26.30
34.3574	26.41
34.3675	26.14
34.3777	26.08
34.3879	26.41
34.398	25.42
34.4082	25.55
34.4184	25.91
34.4285	26.16
34.4387	26.65
34.4489	25.37
34.459	25.89
34.4692	25.71
34.4793	25.88
34.4895	26.07
34.4997	25.09
34.5098	25.11
34.52	26.12
34.5302	25.76
34.5403	25.46
34.5505	25.60
34.5607	25.29
34.5708	25.84
34.581	25.34
34.5912	24.87
34.6013	25.74
34.6115	25.19
34.6217	26.40
34.6318	25.18
34.642	25.30
34.6521	24.88
34.6623	24.46
34.6725	25.13
34.6826	25.45
34.6928	25.97
34.703	25.55
34.7131	25.13
34.7233	25.26
34.7335	25.40
34.7436	25.11
34.7538	24.61
34.764	24.59
34.7741	25.89
34.7843	24.90
34.7944	24.97
34.8046	25.58
34.8148	24.95
34.8249	25.16
34.8351	25.44
34.8453	25.36
34.8554	25.27
34.8656	25.10
34.8758	24.03
34.8859	24.26
34.8961	24.73
34.9063	24.95
34.9164	24.73
34.9266	24.95
34.9367	24.68
34.9469	25.06
34.9571	24.18
34.9672	24.51
34.9774	24.60
34.9876	24.39
34.9977	24.12
35.0079	24.70
35.0181	24.71
35.0282	23.90
35.0384	24.54
35.0486	24.48
35.0587	25.14
35.0689	24.31
35.0791	24.78
35.0892	24.49
35.0994	24.17
35.1095	24.62
35.1197	25.08
35.1299	23.84
35.14	25.00
35.1502	23.73
35.1604	24.53
35.1705	24.55
35.1807	23.91
35.1909	24.56
35.201	24.45
35.2112	23.93
35.2214	24.85
35.2315	24.01
35.2417	24.46
35.2518	24.32
35.262	24.24
35.2722	23.90
35.2823	24.40
35.2925	24.79
35.3027	23.76
35.3128	24.37
35.323	24.37
35.3332	24.01
35.3433	23.82
35.3535	25.01
35.3637	23.70
35.3738	23.48
35.384	24.33
35.3942	23.84
35.4043	23.53
35.4145	23.48
35.4246	24.00
35.4348	24.32
35.445	23.65
35.4551	23.22
35.4653	23.98
35.4755	24.20
35.4856	24.24
35.4958	23.90
35.506	24.05
35.5161	24.37
35.5263	23.51
35.5365	24.43
35.5466	24.15
35.5568	23.54
35.5669	24.77
35.5771	23.51
35.5873	23.54
35.5974	23.66
35.6076	23.43
35.6178	23.79
35.6279	24.52
35.6381	23.55
35.6483	22.93
35.6584	23.63
35.6686	24.13
35.6788	23.54
35.6889	23.65
35.6991	23.89
35.7093	23.96
35.7194	23.55
35.7296	23.43
35.7397	24.09
35.7499	23.04
35.7601	23.07
35.7702	23.68
35.7804	24.23
35.7906	24.37
35.8007	22.96
35.8109	23.74
35.8211	23.58
35.8312	23.76
35.8414	23.86
35.8516	23.60
35.8617	23.51
35.8719	23.55
35.882	23.09
35.8922	23.30
35.9024	23.32
35.9125	23.32
35.9227	24.07
35.9329	24.21
35.943	23.45
35.9532	23.64
35.9634	23.92
35.9735	22.99
35.9837	22.74
35.9939	23.12
36.004	23.10
36.0142	23.16
36.0244	23.59
36.0345	23.80
36.0447	23.02
36.0548	23.76
36.065	23.38
36.0752	23.07
36.0853	23.62
36.0955	23.21
36.1057	23.72
36.1158	24.04
36.126	23.45
36.1362	23.63
36.1463	23.52
36.1565	23.44
36.1667	23.41
36.1768	23.31
36.187	23.58
36.1971	23.55
36.2073	23.97
36.2175	23.66
36.2276	23.42
36.2378	23.43
36.248	23.29
36.2581	23.40
36.2683	23.99
36.2785	23.30
36.2886	23.17
36.2988	23.53
36.309	23.43
36.3191	23.10
36.3293	23.10
36.3395	24.18
36.3496	23.00
36.3598	23.58
36.3699	23.35
36.3801	23.78
36.3903	23.43
36.4004	23.54
36.4106	23.98
36.4208	22.90
36.4309	23.20
36.4411	22.95
36.4513	22.72
36.4614	23.26
36.4716	23.30
36.4818	23.59
36.4919	23.04
36.5021	23.72
36.5122	23.41
36.5224	23.92
36.5326	23.57
36.5427	24.45
36.5529	22.53
36.5631	23.26
36.5732	23.49
36.5834	23.18
36.5936	23.86
36.6037	23.12
36.6139	23.21
36.6241	24.13
36.6342	23.23
36.6444	23.68
36.6546	23.27
36.6647	23.47
36.6749	23.65
36.685	23.55
36.6952	23.24
36.7054	23.65
36.7155	23.62
36.7257	23.95
36.7359	23.30
36.746	23.12
36.7562	23.38
36.7664	23.97
36.7765	23.76
36.7867	23.30
36.7969	23.70
36.807	23.60
36.8172	23.20
36.8273	23.66
36.8375	24.46
36.8477	23.26
36.8578	23.73
36.868	23.66
36.8782	23.64
36.8883	23.38
36.8985	23.95
36.9087	23.95
36.9188	23.94
36.929	24.02
36.9392	24.59
36.9493	23.96
36.9595	23.46
36.9696	24.75
36.9798	23.82
36.99	24.24
37.0001	24.42
37.0103	23.69
37.0205	23.87
37.0306	23.79
37.0408	24.12
37.051	24.35
37.0611	23.18
37.0713	23.14
37.0815	24.55
37.0916	24.20
37.1018	24.75
37.112	24.15
37.1221	24.00
37.1323	23.82
37.1424	24.37
37.1526	24.18
37.1628	24.39
37.1729	24.35
37.1831	25.14
37.1933	24.34
37.2034	24.65
37.2136	25.21
37.2238	24.14
37.2339	24.06
37.2441	24.65
37.2543	24.23
37.2644	24.22
37.2746	24.66
37.2847	24.51
37.2949	24.30
37.3051	24.32
37.3152	24.31
37.3254	24.39
37.3356	24.97
37.3457	25.30
37.3559	24.95
37.3661	25.08
37.3762	25.27
37.3864	24.49
37.3966	24.38
37.4067	24.91
37.4169	24.40
37.4271	25.37
37.4372	24.90
37.4474	25.09
37.4575	25.19
37.4677	24.65
37.4779	25.01
37.488	25.20
37.4982	25.04
37.5084	24.87
37.5185	25.49
37.5287	24.77
37.5389	25.63
37.549	25.47
37.5592	25.50
37.5694	25.13
37.5795	25.88
37.5897	26.01
37.5998	24.80
37.61	25.99
37.6202	25.12
37.6303	25.45
37.6405	25.43
37.6507	25.32
37.6608	25.40
37.671	25.41
37.6812	25.40
37.6913	25.37
37.7015	25.87
37.7117	26.35
37.7218	25.41
37.732	26.14
37.7422	26.24
37.7523	25.81
37.7625	26.63
37.7726	25.83
37.7828	26.10
37.793	25.76
37.8031	26.63
37.8133	26.57
37.8235	26.26
37.8336	25.85
37.8438	26.63
37.854	25.84
37.8641	26.57
37.8743	26.35
37.8845	26.84
37.8946	26.98
37.9048	26.52
37.9149	26.90
37.9251	26.78
37.9353	26.96
37.9454	26.92
37.9556	26.87
37.9658	27.55
37.9759	27.32
37.9861	27.42
37.9963	26.98
38.0064	26.93
38.0166	26.63
38.0268	27.21
38.0369	27.04
38.0471	27.04
38.0573	27.73
38.0674	26.96
38.0776	27.39
38.0877	27.62
38.0979	27.93
38.1081	27.54
38.1182	27.56
38.1284	27.70
38.1386	28.00
38.1487	27.48
38.1589	28.42
38.1691	27.43
38.1792	28.10
38.1894	29.20
38.1996	27.38
38.2097	28.10
38.2199	28.45
38.23	28.60
38.2402	28.18
38.2504	28.40
38.2605	28.00
38.2707	28.44
38.2809	28.28
38.291	27.92
38.3012	28.43
38.3114	28.97
38.3215	28.48
38.3317	28.48
38.3419	28.96
38.352	28.70
38.3622	29.07
38.3724	29.73
38.3825	28.99
38.3927	28.95
38.4028	29.11
38.413	29.37
38.4232	28.92
38.4333	28.95
38.4435	29.23
38.4537	29.00
38.4638	29.80
38.474	29.75
38.4842	29.04
38.4943	29.54
38.5045	29.29
38.5147	29.73
38.5248	30.23
38.535	29.68
38.5451	30.16
38.5553	30.16
38.5655	30.22
38.5756	30.09
38.5858	29.69
38.596	29.73
38.6061	29.53
38.6163	30.02
38.6265	30.71
38.6366	29.84
38.6468	30.33
38.657	30.30
38.6671	30.04
38.6773	30.26
38.6875	29.86
38.6976	30.30
38.7078	29.82
38.7179	30.49
38.7281	30.29
38.7383	30.38
38.7484	29.57
38.7586	30.27
38.7688	29.01
38.7789	30.48
38.7891	29.70
38.7993	30.45
38.8094	29.52
38.8196	30.35
38.8298	29.73
38.8399	30.14
38.8501	30.02
38.8602	29.67
38.8704	30.32
38.8806	29.79
38.8907	30.33
38.9009	29.54
38.9111	30.08
38.9212	29.85
38.9314	30.40
38.9416	30.06
38.9517	29.28
38.9619	28.94
38.9721	29.56
38.9822	29.54
38.9924	29.83
39.0025	29.85
39.0127	28.96
39.0229	30.40
39.033	29.43
39.0432	29.89
39.0534	29.86
39.0635	29.35
39.0737	28.89
39.0839	30.33
39.094	29.33
39.1042	29.63
39.1144	29.43
39.1245	29.87
39.1347	29.65
39.1449	29.36
39.155	29.53
39.1652	29.05
39.1753	28.91
39.1855	29.32
39.1957	28.15
39.2058	28.99
39.216	29.15
39.2262	28.55
39.2363	28.56
39.2465	28.86
39.2567	28.64
39.2668	28.13
39.277	28.37
39.2872	28.40
39.2973	28.26
39.3075	28.16
39.3176	28.77
39.3278	28.23
39.338	28.31
39.3481	27.84
39.3583	27.57
39.3685	27.82
39.3786	28.32
39.3888	26.88
39.399	28.30
39.4091	27.32
39.4193	27.40
39.4295	27.04
39.4396	27.38
39.4498	27.22
39.46	26.96
39.4701	27.43
39.4803	27.29
39.4904	26.99
39.5006	26.43
39.5108	27.40
39.5209	27.16
39.5311	26.54
39.5413	26.70
39.5514	26.82
39.5616	26.74
39.5718	26.62
39.5819	27.38
39.5921	26.42
39.6023	26.79
39.6124	26.75
39.6226	26.27
39.6327	26.77
39.6429	25.83
39.6531	26.38
39.6632	26.59
39.6734	26.51
39.6836	25.86
39.6937	26.16
39.7039	26.23
39.7141	26.02
39.7242	26.30
39.7344	26.48
39.7446	26.41
39.7547	25.78
39.7649	26.07
39.7751	26.39
39.7852	25.58
39.7954	25.88
39.8055	25.01
39.8157	24.80
39.8259	25.27
39.836	25.37
39.8462	25.41
39.8564	25.38
39.8665	24.93
39.8767	25.95
39.8869	25.32
39.897	25.41
39.9072	25.04
39.9174	25.53
39.9275	24.95
39.9377	25.51
39.9478	25.51
39.958	24.78
39.9682	25.43
39.9783	25.21
39.9885	25.48
39.9987	25.50
