5.0023	50.80
5.0125	50.65
5.0226	49.90
5.0328	48.68
5.043	48.62
5.0531	47.98
5.0633	46.26
5.0735	46.70
5.0836	45.07
5.0938	45.46
5.1039	44.49
5.1141	44.02
5.1243	44.25
5.1344	43.92
5.1446	42.26
5.1548	41.80
5.1649	41.70
5.1751	40.66
5.1853	40.32
5.1954	40.29
5.2056	39.69
5.2158	38.68
5.2259	38.27
5.2361	37.33
5.2462	37.60
5.2564	36.87
5.2666	36.73
5.2767	36.53
5.2869	35.76
5.2971	36.22
5.3072	35.88
5.3174	35.60
5.3276	34.41
5.3377	33.93
5.3479	34.56
5.3581	33.10
5.3682	32.81
5.3784	33.07
5.3886	32.29
5.3987	32.54
5.4089	31.84
5.419	32.10
5.4292	30.46
5.4394	30.69
5.4495	31.47
5.4597	28.92
5.4699	30.13
5.48	30.73
5.4902	29.10
5.5004	29.84
5.5105	30.26
5.5207	28.77
5.5309	28.91
5.541	28.66
5.5512	28.23
5.5613	28.06
5.5715	28.19
5.5817	27.96
5.5918	28.21
5.602	28.04
5.6122	25.81
5.6223	27.61
5.6325	27.82
5.6427	25.30
5.6528	26.33
5.663	27.46
5.6732	26.04
5.6833	26.21
5.6935	25.67
5.7036	26.24
5.7138	25.37
5.724	25.72
5.7341	25.07
5.7443	25.21
5.7545	25.62
5.7646	25.04
5.7748	24.57
5.785	25.65
5.7951	24.40
5.8053	25.41
5.8155	25.34
5.8256	24.30
5.8358	24.51
5.846	24.38
5.8561	24.49
5.8663	24.37
5.8764	24.65
5.8866	24.55
5.8968	24.79
5.9069	25.21
5.9171	24.24
5.9273	24.62
5.9374	24.36
5.9476	24.43
5.9578	24.55
5.9679	24.60
5.9781	24.56
5.9883	23.80
5.9984	24.31
6.0086	24.06
6.0187	23.84
6.0289	24.98
6.0391	24.17
6.0492	23.44
6.0594	24.16
6.0696	24.27
6.0797	24.07
6.0899	23.75
6.1001	22.95
6.1102	24.10
6.1204	23.40
6.1306	23.47
6.1407	24.14
6.1509	23.15
6.1611	23.56
6.1712	23.35
6.1814	24.32
6.1915	23.98
6.2017	23.91
6.2119	23.66
6.222	24.14
6.2322	23.69
6.2424	22.83
6.2525	22.77
6.2627	24.59
6.2729	23.29
6.283	22.91
6.2932	23.85
6.3034	23.29
6.3135	23.91
6.3237	23.38
6.3338	22.57
6.344	23.22
6.3542	23.12
6.3643	23.34
6.3745	22.91
6.3847	23.21
6.3948	23.62
6.405	22.73
6.4152	23.36
6.4253	23.81
6.4355	23.11
6.4457	23.01
6.4558	23.82
6.466	23.65
6.4762	23.46
6.4863	23.95
6.4965	23.23
6.5066	23.34
6.5168	23.77
6.527	22.82
6.5371	23.98
6.5473	23.84
6.5575	23.08
6.5676	23.36
6.5778	23.56
6.588	22.88
6.5981	22.91
6.6083	23.43
6.6185	24.28
6.6286	24.14
6.6388	23.79
6.6489	22.89
6.6591	23.15
6.6693	23.58
6.6794	23.94
6.6896	23.20
6.6998	23.52
6.7099	23.79
6.7201	23.58
6.7303	23.76
6.7404	23.66
6.7506	23.52
6.7608	23.51
6.7709	24.15
6.7811	23.87
6.7913	23.32
6.8014	24.26
6.8116	24.26
6.8217	23.29
6.8319	23.65
6.8421	23.65
6.8522	23.88
6.8624	24.22
6.8726	25.07
6.8827	23.89
6.8929	23.68
6.9031	23.55
6.9132	24.71
6.9234	23.87
6.9336	23.92
6.9437	24.67
6.9539	23.09
6.964	24.85
6.9742	24.31
6.9844	23.59
6.9945	23.85
7.0047	24.54
7.0149	23.62
7.025	23.75
7.0352	23.95
7.0454	24.15
7.0555	24.39
7.0657	23.85
7.0759	24.30
7.086	23.91
7.0962	23.71
7.1064	24.75
7.1165	24.46
7.1267	23.88
7.1368	25.13
7.147	24.25
7.1572	25.01
7.1673	24.60
7.1775	24.25
7.1877	24.46
7.1978	24.21
7.208	25.01
7.2182	24.48
7.2283	24.31
7.2385	24.73
7.2487	25.23
7.2588	25.02
7.269	23.92
7.2791	24.34
7.2893	25.06
7.2995	24.96
7.3096	25.01
7.3198	24.88
7.33	25.08
7.3401	24.37
7.3503	25.32
7.3605	25.22
7.3706	24.52
7.3808	25.30
7.391	24.76
7.4011	24.79
7.4113	25.68
7.4215	25.55
7.4316	25.49
7.4418	25.11
7.4519	24.95
7.4621	25.21
7.4723	25.42
7.4824	24.87
7.4926	25.28
7.5028	25.74
7.5129	25.20
7.5231	24.66
7.5333	24.97
7.5434	24.60
7.5536	25.00
7.5638	26.29
7.5739	25.12
7.5841	25.28
7.5942	26.01
7.6044	25.51
7.6146	25.77
7.6247	25.30
7.6349	25.32
7.6451	26.30
7.6552	26.04
7.6654	25.95
7.6756	25.77
7.6857	25.63
7.6959	26.20
7.7061	26.60
7.7162	25.72
7.7264	24.84
7.7365	25.35
7.7467	25.71
7.7569	25.80
7.767	25.41
7.7772	25.51
7.7874	25.59
7.7975	25.70
7.8077	26.24
7.8179	25.89
7.828	26.37
7.8382	25.85
7.8484	24.65
7.8585	26.13
7.8687	26.73
7.8789	25.62
7.889	25.33
7.8992	27.06
7.9093	25.61
7.9195	26.77
7.9297	26.35
7.9398	25.68
7.95	26.93
7.9602	26.62
7.9703	27.41
7.9805	26.81
7.9907	26.51
8.0008	26.39
8.011	26.56
8.0212	27.21
8.0313	26.91
8.0415	27.37
8.0516	26.39
8.0618	26.13
8.072	26.55
8.0821	26.59
8.0923	26.24
8.1025	27.00
8.1126	27.30
8.1228	26.94
8.133	27.64
8.1431	27.38
8.1533	26.71
8.1635	26.91
8.1736	27.51
8.1838	27.26
8.194	27.29
8.2041	27.20
8.2143	26.71
8.2244	28.02
8.2346	27.74
8.2448	27.01
8.2549	27.37
8.2651	27.83
8.2753	27.55
8.2854	26.65
8.2956	27.93
8.3058	26.72
8.3159	27.94
8.3261	26.90
8.3363	27.46
8.3464	27.30
8.3566	28.21
8.3667	26.90
8.3769	27.90
8.3871	28.20
8.3972	28.15
8.4074	27.84
8.4176	27.29
8.4277	27.47
8.4379	28.14
8.4481	27.33
8.4582	27.59
8.4684	28.27
8.4786	27.87
8.4887	27.37
8.4989	28.07
8.5091	28.37
8.5192	28.55
8.5294	28.65
8.5395	27.89
8.5497	27.52
8.5599	27.56
8.57	28.44
8.5802	27.56
8.5904	28.56
8.6005	27.99
8.6107	27.81
8.6209	28.80
8.631	28.29
8.6412	27.44
8.6514	28.85
8.6615	27.85
8.6717	28.47
8.6818	28.60
8.692	28.65
8.7022	28.04
8.7123	29.10
8.7225	28.87
8.7327	27.98
8.7428	28.61
8.753	29.41
8.7632	28.99
8.7733	29.30
8.7835	28.74
8.7937	29.45
8.8038	29.03
8.814	29.10
8.8242	29.45
8.8343	28.98
8.8445	28.74
8.8546	28.47
8.8648	29.57
8.875	29.39
8.8851	27.98
8.8953	29.46
8.9055	28.88
8.9156	29.28
8.9258	28.96
8.936	29.35
8.9461	30.04
8.9563	29.51
8.9665	28.52
8.9766	29.70
8.9868	29.57
8.9969	29.09
9.0071	29.27
9.0173	29.37
9.0274	29.77
9.0376	29.64
9.0478	30.02
9.0579	29.64
9.0681	29.50
9.0783	29.34
9.0884	30.27
9.0986	30.35
9.1088	29.90
9.1189	29.55
9.1291	29.02
9.1393	29.43
9.1494	29.59
9.1596	29.07
9.1697	29.92
9.1799	29.37
9.1901	30.14
9.2002	29.87
9.2104	30.22
9.2206	29.70
9.2307	30.62
9.2409	30.46
9.2511	30.13
9.2612	29.72
9.2714	30.71
9.2816	30.29
9.2917	30.07
9.3019	30.34
9.312	30.82
9.3222	31.30
9.3324	30.84
9.3425	30.04
9.3527	30.51
9.3629	31.54
9.373	29.74
9.3832	31.48
9.3934	31.30
9.4035	30.55
9.4137	31.26
9.4239	29.87
9.434	30.59
9.4442	31.30
9.4544	30.24
9.4645	30.60
9.4747	32.04
9.4848	31.76
9.495	30.43
9.5052	30.85
9.5153	31.55
9.5255	30.09
9.5357	30.71
9.5458	31.76
9.556	30.71
9.5662	31.11
9.5763	31.43
9.5865	31.01
9.5967	30.95
9.6068	30.74
9.617	31.88
9.6271	30.52
9.6373	31.30
9.6475	31.13
9.6576	31.36
9.6678	32.20
9.678	30.99
9.6881	31.46
9.6983	32.00
9.7085	30.95
9.7186	31.73
9.7288	31.43
9.739	31.76
9.7491	31.65
9.7593	31.54
9.7694	31.10
9.7796	31.53
9.7898	31.62
9.7999	30.55
9.8101	31.73
9.8203	32.07
9.8304	31.15
9.8406	32.41
9.8508	31.89
9.8609	31.76
9.8711	31.61
9.8813	32.06
9.8914	32.20
9.9016	32.45
9.9118	31.68
9.9219	31.96
9.9321	30.96
9.9422	31.34
9.9524	32.23
9.9626	31.90
9.9727	31.88
9.9829	32.18
9.9931	32.61
10.0032	31.91
10.0134	31.69
10.0236	32.59
10.0337	32.97
10.0439	32.52
10.0541	32.76
10.0642	31.89
10.0744	31.88
10.0845	32.81
10.0947	32.09
10.1049	32.95
10.115	32.72
10.1252	32.71
10.1354	32.96
10.1455	32.91
10.1557	32.33
10.1659	32.89
10.176	32.77
10.1862	32.65
10.1964	31.88
10.2065	32.67
10.2167	32.20
10.2269	33.11
10.237	33.74
10.2472	32.35
10.2573	32.91
10.2675	32.95
10.2777	32.51
10.2878	33.38
10.298	33.37
10.3082	33.53
10.3183	33.20
10.3285	33.59
10.3387	33.73
10.3488	32.97
10.359	33.31
10.3692	33.02
10.3793	33.40
10.3895	34.11
10.3996	33.10
10.4098	32.91
10.42	33.65
10.4301	33.51
10.4403	32.46
10.4505	34.76
10.4606	33.94
10.4708	32.49
10.481	33.68
10.4911	34.73
10.5013	33.08
10.5115	33.50
10.5216	33.55
10.5318	34.04
10.542	33.76
10.5521	33.55
10.5623	34.30
10.5724	33.35
10.5826	34.27
10.5928	34.06
10.6029	33.86
10.6131	34.05
10.6233	32.95
10.6334	34.35
10.6436	34.22
10.6538	34.43
10.6639	34.23
10.6741	33.60
10.6843	34.53
10.6944	34.29
10.7046	34.45
10.7147	35.38
10.7249	34.51
10.7351	34.04
10.7452	34.08
10.7554	34.82
10.7656	34.48
10.7757	34.15
10.7859	35.45
10.7961	35.17
10.8062	34.96
10.8164	34.64
10.8266	34.88
10.8367	34.87
10.8469	35.12
10.8571	35.49
10.8672	34.97
10.8774	34.51
10.8875	34.27
10.8977	35.23
10.9079	36.39
10.918	35.51
10.9282	35.13
10.9384	35.33
10.9485	35.85
10.9587	35.07
10.9689	35.15
10.979	34.70
10.9892	34.91
10.9994	35.14
11.0095	35.49
11.0197	35.49
11.0298	35.79
11.04	35.39
11.0502	35.49
11.0603	35.14
11.0705	35.82
11.0807	36.02
11.0908	35.47
11.101	36.87
11.1112	36.27
11.1213	35.91
11.1315	35.91
11.1417	35.41
11.1518	36.87
11.162	35.80
11.1722	36.09
11.1823	35.41
11.1925	35.91
11.2026	36.23
11.2128	36.45
11.223	37.41
11.2331	36.34
11.2433	36.52
11.2535	36.46
11.2636	36.14
11.2738	36.45
11.284	37.48
11.2941	36.96
11.3043	36.79
11.3145	36.15
11.3246	36.76
11.3348	37.55
11.3449	37.10
11.3551	36.84
11.3653	37.20
11.3754	36.23
11.3856	36.22
11.3958	37.18
11.4059	36.35
11.4161	36.77
11.4263	36.88
11.4364	36.55
11.4466	36.06
11.4568	36.83
11.4669	36.79
11.4771	37.18
11.4873	37.57
11.4974	37.40
11.5076	37.95
11.5177	37.13
11.5279	38.10
11.5381	38.22
11.5482	37.39
11.5584	37.54
11.5686	37.23
11.5787	37.11
11.5889	37.93
11.5991	37.79
11.6092	37.06
11.6194	38.33
11.6296	38.07
11.6397	37.02
11.6499	37.96
11.66	37.89
11.6702	38.69
11.6804	37.81
11.6905	38.60
11.7007	37.82
11.7109	38.24
11.721	39.27
11.7312	38.14
11.7414	38.07
11.7515	38.38
11.7617	39.23
11.7719	37.57
11.782	39.55
11.7922	39.37
11.8023	38.73
11.8125	38.88
11.8227	37.98
11.8328	39.06
11.843	39.59
11.8532	39.04
11.8633	39.46
11.8735	39.13
11.8837	38.73
11.8938	39.14
11.904	39.38
11.9142	39.90
11.9243	39.48
11.9345	38.76
11.9447	39.16
11.9548	40.40
11.965	40.08
11.9751	40.02
11.9853	40.12
11.9955	39.66
12.0056	39.67
12.0158	38.66
12.026	39.20
12.0361	40.04
12.0463	39.22
12.0565	39.54
12.0666	39.21
12.0768	40.12
12.087	40.39
12.0971	40.22
12.1073	40.57
12.1174	41.21
12.1276	40.68
12.1378	40.97
12.1479	40.01
12.1581	40.10
12.1683	40.99
12.1784	41.10
12.1886	40.92
12.1988	41.27
12.2089	41.36
12.2191	40.29
12.2293	42.07
12.2394	41.22
12.2496	42.28
12.2598	41.86
12.2699	41.28
12.2801	40.49
12.2902	41.73
12.3004	41.10
12.3106	41.43
12.3207	41.62
12.3309	41.82
12.3411	42.02
12.3512	42.85
12.3614	42.15
12.3716	41.89
12.3817	42.54
12.3919	42.93
12.4021	42.46
12.4122	41.62
12.4224	42.61
12.4325	42.45
12.4427	42.98
12.4529	42.68
12.463	42.87
12.4732	41.72
12.4834	41.79
12.4935	42.16
12.5037	42.95
12.5139	44.56
12.524	42.88
12.5342	42.87
12.5444	42.61
12.5545	42.79
12.5647	42.90
12.5749	42.90
12.585	44.15
12.5952	44.26
12.6053	44.04
12.6155	43.68
12.6257	43.62
12.6358	43.48
12.646	42.03
12.6562	44.15
12.6663	43.99
12.6765	43.01
12.6867	43.35
12.6968	43.84
12.707	43.48
12.7172	44.06
12.7273	43.48
12.7375	43.85
12.7476	43.64
12.7578	44.54
12.768	44.80
12.7781	44.70
12.7883	44.60
12.7985	44.49
12.8086	45.35
12.8188	45.27
12.829	44.82
12.8391	44.99
12.8493	45.68
12.8595	45.50
12.8696	44.86
12.8798	45.68
12.89	45.35
12.9001	45.98
12.9103	45.49
12.9204	45.81
12.9306	45.01
12.9408	45.45
12.9509	46.01
12.9611	46.71
12.9713	46.35
12.9814	46.55
12.9916	47.05
13.0018	46.79
13.0119	46.93
13.0221	46.95
13.0323	46.80
13.0424	47.51
13.0526	46.37
13.0627	47.43
13.0729	46.26
13.0831	47.50
13.0932	46.93
13.1034	47.48
13.1136	48.48
13.1237	46.96
13.1339	47.36
13.1441	47.69
13.1542	46.47
13.1644	46.80
13.1746	46.71
13.1847	48.69
13.1949	48.58
13.2051	49.39
13.2152	47.62
13.2254	48.07
13.2355	49.32
13.2457	48.37
13.2559	48.96
13.266	48.39
13.2762	48.45
13.2864	48.03
13.2965	49.54
13.3067	49.29
13.3169	48.61
13.327	48.96
13.3372	49.35
13.3474	48.88
13.3575	49.74
13.3677	49.35
13.3778	49.15
13.388	49.95
13.3982	50.12
13.4083	49.18
13.4185	49.35
13.4287	51.28
13.4388	50.10
13.449	50.68
13.4592	49.88
13.4693	49.67
13.4795	50.86
13.4897	50.95
13.4998	51.25
13.51	49.87
13.5201	51.18
13.5303	50.74
13.5405	50.08
13.5506	50.79
13.5608	52.12
13.571	50.93
13.5811	51.04
13.5913	51.13
13.6015	50.08
13.6116	51.37
13.6218	52.96
13.632	52.01
13.6421	52.35
13.6523	51.57
13.6625	52.35
13.6726	53.45
13.6828	52.34
13.6929	51.82
13.7031	52.76
13.7133	52.86
13.7234	53.36
13.7336	53.47
13.7438	52.51
13.7539	54.04
13.7641	55.01
13.7743	52.81
13.7844	52.91
13.7946	53.91
13.8048	52.82
13.8149	53.37
13.8251	55.60
13.8352	54.43
13.8454	54.11
13.8556	54.15
13.8657	54.56
13.8759	54.96
13.8861	55.30
13.8962	54.35
13.9064	54.42
13.9166	54.88
13.9267	54.55
13.9369	55.68
13.9471	54.99
13.9572	55.30
13.9674	55.76
13.9776	55.16
13.9877	55.89
13.9979	54.79
14.008	56.56
14.0182	55.21
14.0284	55.30
14.0385	55.77
14.0487	56.87
14.0589	55.54
14.069	57.27
14.0792	56.93
14.0894	56.48
14.0995	56.89
14.1097	57.61
14.1199	55.80
14.13	57.39
14.1402	57.79
14.1503	57.81
14.1605	58.53
14.1707	57.84
14.1808	57.48
14.191	57.51
14.2012	58.20
14.2113	57.05
14.2215	58.52
14.2317	57.93
14.2418	59.40
14.252	58.21
14.2622	60.29
14.2723	58.88
14.2825	58.42
14.2927	58.00
14.3028	59.86
14.313	59.66
14.3231	60.27
14.3333	59.57
14.3435	60.87
14.3536	59.90
14.3638	59.89
14.374	60.57
14.3841	61.12
14.3943	60.74
14.4045	61.35
14.4146	60.13
14.4248	61.54
14.435	61.37
14.4451	61.70
14.4553	61.55
14.4654	62.91
14.4756	60.56
14.4858	60.40
14.4959	61.83
14.5061	62.15
14.5163	61.39
14.5264	62.81
14.5366	61.97
14.5468	62.40
14.5569	62.29
14.5671	63.19
14.5773	62.74
14.5874	63.30
14.5976	63.09
14.6078	63.30
14.6179	64.65
14.6281	64.29
14.6382	63.91
14.6484	63.98
14.6586	64.52
14.6687	63.96
14.6789	64.59
14.6891	64.16
14.6992	64.24
14.7094	64.46
14.7196	64.41
14.7297	64.71
14.7399	67.00
14.7501	64.90
14.7602	65.27
14.7704	65.37
14.7805	65.75
14.7907	66.17
14.8009	66.87
14.811	65.87
14.8212	66.18
14.8314	67.84
14.8415	66.95
14.8517	67.52
14.8619	66.67
14.872	67.65
14.8822	66.99
14.8924	67.59
14.9025	66.76
14.9127	66.50
14.9229	68.29
14.933	67.97
14.9432	68.01
14.9533	67.99
14.9635	67.60
14.9737	69.51
14.9838	69.52
14.994	67.96
15.0042	68.70
15.0143	68.37
15.0245	69.52
15.0347	69.51
15.0448	70.21
15.055	69.10
15.0652	70.46
15.0753	71.51
15.0855	70.64
15.0956	71.26
15.1058	70.21
15.116	69.77
15.1261	70.57
15.1363	71.40
15.1465	71.58
15.1566	70.93
15.1668	71.88
15.177	71.98
15.1871	71.51
15.1973	71.96
15.2075	71.23
15.2176	71.91
15.2278	72.22
15.238	72.18
15.2481	72.73
15.2583	73.59
15.2684	72.97
15.2786	73.13
15.2888	73.66
15.2989	73.41
15.3091	74.17
15.3193	74.01
15.3294	73.88
15.3396	74.55
15.3498	73.74
15.3599	73.82
15.3701	76.40
15.3803	75.07
15.3904	77.15
15.4006	76.26
15.4107	75.71
15.4209	75.57
15.4311	76.93
15.4412	77.00
15.4514	76.81
15.4616	75.91
15.4717	77.32
15.4819	77.25
15.4921	77.02
15.5022	76.02
15.5124	77.62
15.5226	77.86
15.5327	77.96
15.5429	79.26
15.553	77.28
15.5632	78.88
15.5734	78.37
15.5835	78.32
15.5937	80.46
15.6039	79.52
15.614	79.02
15.6242	80.26
15.6344	78.65
15.6445	80.23
15.6547	81.08
15.6649	78.77
15.675	79.57
15.6852	80.49
15.6954	80.16
15.7055	81.58
15.7157	81.68
15.7258	81.48
15.736	80.27
15.7462	80.83
15.7563	82.18
15.7665	82.36
15.7767	84.26
15.7868	83.57
15.797	82.66
15.8072	83.46
15.8173	84.29
15.8275	84.34
15.8377	82.63
15.8478	84.15
15.858	83.32
15.8681	84.10
15.8783	82.68
15.8885	84.54
15.8986	84.35
15.9088	84.35
15.919	84.86
15.9291	85.09
15.9393	86.60
15.9495	85.06
15.9596	85.79
15.9698	87.37
15.98	86.10
15.9901	87.84
16.0003	86.07
16.0105	87.71
16.0206	87.73
16.0308	86.48
16.0409	87.71
16.0511	88.25
16.0613	88.05
16.0714	88.16
16.0816	87.49
16.0918	89.49
16.1019	89.26
16.1121	89.34
16.1223	90.05
16.1324	90.49
16.1426	88.70
16.1528	89.54
16.1629	88.07
16.1731	89.93
16.1832	89.39
16.1934	90.83
16.2036	91.33
16.2137	89.81
16.2239	90.30
16.2341	89.93
16.2442	92.16
16.2544	90.65
16.2646	92.59
16.2747	92.09
16.2849	92.32
16.2951	93.19
16.3052	92.92
16.3154	93.93
16.3256	93.96
16.3357	93.06
16.3459	93.85
16.356	94.17
16.3662	95.43
16.3764	94.74
16.3865	96.12
16.3967	95.30
16.4069	94.63
16.417	96.91
16.4272	95.71
16.4374	95.84
16.4475	97.39
16.4577	96.23
16.4679	97.62
16.478	98.33
16.4882	97.62
16.4983	97.71
16.5085	97.71
16.5187	96.68
16.5288	98.42
16.539	99.35
16.5492	98.66
16.5593	99.11
16.5695	98.83
16.5797	100.10
16.5898	99.45
16.6	97.90
16.6102	101.09
16.6203	100.79
16.6305	100.95
16.6407	99.94
16.6508	102.16
16.661	101.14
16.6711	101.60
16.6813	102.24
16.6915	103.01
16.7016	101.26
16.7118	102.13
16.722	101.63
16.7321	102.47
16.7423	101.74
16.7525	104.76
16.7626	102.99
16.7728	103.52
16.783	106.59
16.7931	104.13
16.8033	104.65
16.8134	105.50
16.8236	103.68
16.8338	104.98
16.8439	105.21
16.8541	106.12
16.8643	107.41
16.8744	104.07
16.8846	105.18
16.8948	106.09
16.9049	106.38
16.9151	108.39
16.9253	106.71
16.9354	108.53
16.9456	107.61
16.9558	108.39
16.9659	108.42
16.9761	108.06
16.9862	107.96
16.9964	108.07
17.0066	107.07
17.0167	110.42
17.0269	108.48
17.0371	109.98
17.0472	108.77
17.0574	110.60
17.0676	110.40
17.0777	108.73
17.0879	111.79
17.0981	109.79
17.1082	109.21
17.1184	112.09
17.1285	110.76
17.1387	109.61
17.1489	112.89
17.159	111.17
17.1692	109.76
17.1794	113.66
17.1895	112.73
17.1997	112.59
17.2099	114.39
17.22	112.84
17.2302	114.98
17.2404	114.79
17.2505	112.84
17.2607	114.29
17.2709	114.93
17.281	114.30
17.2912	113.64
17.3013	114.09
17.3115	115.38
17.3217	115.96
17.3318	116.52
17.342	115.76
17.3522	116.87
17.3623	117.27
17.3725	116.87
17.3827	117.44
17.3928	118.89
17.403	117.58
17.4132	118.07
17.4233	118.48
17.4335	118.36
17.4436	119.66
17.4538	119.96
17.464	120.33
17.4741	120.27
17.4843	119.82
17.4945	120.66
17.5046	120.80
17.5148	122.70
17.525	120.97
17.5351	120.52
17.5453	121.78
17.5555	122.98
17.5656	120.41
17.5758	124.42
17.5859	123.12
17.5961	123.51
17.6063	126.12
17.6164	125.22
17.6266	124.48
17.6368	126.12
17.6469	126.25
17.6571	128.01
17.6673	127.30
17.6774	128.69
17.6876	128.41
17.6978	128.16
17.7079	131.66
17.7181	129.55
17.7283	132.35
17.7384	130.08
17.7486	132.08
17.7587	131.59
17.7689	132.66
17.7791	133.42
17.7892	133.71
17.7994	134.24
17.8096	135.97
17.8197	135.01
17.8299	134.12
17.8401	135.37
17.8502	138.94
17.8604	137.98
17.8706	141.71
17.8807	139.35
17.8909	140.85
17.901	142.14
17.9112	143.76
17.9214	141.24
17.9315	144.12
17.9417	145.39
17.9519	144.82
17.962	146.29
17.9722	148.13
17.9824	149.28
17.9925	150.52
18.0027	151.32
18.0129	151.39
18.023	154.82
18.0332	156.57
18.0434	156.60
18.0535	155.24
18.0637	158.96
18.0738	160.79
18.084	162.17
18.0942	163.66
18.1043	161.99
18.1145	165.79
18.1247	167.74
18.1348	169.21
18.145	168.68
18.1552	173.01
18.1653	172.73
18.1755	174.10
18.1857	177.06
18.1958	178.95
18.206	179.89
18.2161	182.59
18.2263	184.62
18.2365	183.35
18.2466	189.95
18.2568	189.70
18.267	190.56
18.2771	195.98
18.2873	197.31
18.2975	196.99
18.3076	201.98
18.3178	202.66
18.328	203.01
18.3381	206.82
18.3483	208.32
18.3585	210.56
18.3686	213.73
18.3788	216.02
18.3889	216.41
18.3991	219.04
18.4093	220.04
18.4194	223.05
18.4296	225.09
18.4398	227.63
18.4499	227.56
18.4601	230.95
18.4703	231.04
18.4804	232.00
18.4906	234.37
18.5008	233.00
18.5109	234.73
18.5211	235.08
18.5312	236.24
18.5414	237.71
18.5516	238.37
18.5617	239.27
18.5719	239.22
18.5821	238.76
18.5922	238.68
18.6024	235.35
18.6126	236.61
18.6227	236.60
18.6329	233.09
18.6431	236.21
18.6532	234.45
18.6634	232.23
18.6736	232.60
18.6837	230.92
18.6939	226.65
18.704	227.91
18.7142	226.37
18.7244	225.95
18.7345	222.88
18.7447	219.88
18.7549	219.52
18.765	221.01
18.7752	216.12
18.7854	213.52
18.7955	212.96
18.8057	209.66
18.8159	205.87
18.826	204.58
18.8362	204.28
18.8463	200.95
18.8565	196.49
18.8667	197.70
18.8768	194.65
18.887	191.78
18.8972	192.87
18.9073	189.98
18.9175	189.18
18.9277	186.26
18.9378	183.18
18.948	183.73
18.9582	181.80
18.9683	177.02
18.9785	178.09
18.9887	176.33
18.9988	173.74
19.009	174.96
19.0191	172.96
19.0293	169.90
19.0395	169.37
19.0496	169.54
19.0598	165.16
19.07	166.50
19.0801	164.04
19.0903	161.07
19.1005	162.40
19.1106	159.57
19.1208	160.05
19.131	158.20
19.1411	158.16
19.1513	156.44
19.1614	155.50
19.1716	155.23
19.1818	154.52
19.1919	153.42
19.2021	153.13
19.2123	149.96
19.2224	153.39
19.2326	151.04
19.2428	148.26
19.2529	146.99
19.2631	149.55
19.2733	147.79
19.2834	147.10
19.2936	144.98
19.3038	144.21
19.3139	143.12
19.3241	142.98
19.3342	143.37
19.3444	143.04
19.3546	142.41
19.3647	142.13
19.3749	142.03
19.3851	140.58
19.3952	140.33
19.4054	139.84
19.4156	141.06
19.4257	139.38
19.4359	139.60
19.4461	138.37
19.4562	136.99
19.4664	138.75
19.4765	138.13
19.4867	137.60
19.4969	136.43
19.507	137.26
19.5172	136.08
19.5274	136.05
19.5375	136.09
19.5477	136.81
19.5579	136.70
19.568	136.35
19.5782	135.81
19.5884	135.25
19.5985	132.68
19.6087	132.59
19.6188	132.24
19.629	134.18
19.6392	132.68
19.6493	133.70
19.6595	133.46
19.6697	134.82
19.6798	133.64
19.69	133.46
19.7002	132.22
19.7103	134.23
19.7205	132.03
19.7307	132.31
19.7408	133.05
19.751	132.13
19.7612	133.33
19.7713	132.27
19.7815	133.93
19.7916	132.53
19.8018	132.53
19.812	131.09
19.8221	132.05
19.8323	133.03
19.8425	132.37
19.8526	131.40
19.8628	133.21
19.873	132.04
19.8831	130.86
19.8933	134.22
19.9035	134.35
19.9136	130.79
19.9238	134.07
19.9339	132.84
19.9441	132.43
19.9543	132.38
19.9644	132.79
19.9746	133.07
19.9848	131.57
19.9949	131.61
20.0051	131.98
20.0153	131.68
20.0254	131.88
20.0356	132.79
20.0458	133.32
20.0559	134.50
20.0661	132.98
20.0763	134.65
20.0864	134.38
20.0966	134.09
20.1067	134.79
20.1169	133.23
20.1271	134.48
20.1372	135.27
20.1474	135.05
20.1576	134.46
20.1677	136.43
20.1779	136.45
20.1881	134.22
20.1982	137.90
20.2084	135.73
20.2186	135.43
20.2287	136.54
20.2389	134.35
20.249	135.68
20.2592	138.95
20.2694	136.45
20.2795	135.60
20.2897	137.28
20.2999	137.51
20.31	136.01
20.3202	138.45
20.3304	136.55
20.3405	137.53
20.3507	137.71
20.3609	137.93
20.371	138.64
20.3812	137.82
20.3914	137.29
20.4015	137.68
20.4117	139.68
20.4218	139.38
20.432	135.80
20.4422	138.98
20.4523	139.54
20.4625	138.04
20.4727	138.24
20.4828	138.45
20.493	138.01
20.5032	138.66
20.5133	138.37
20.5235	137.22
20.5337	138.89
20.5438	138.03
20.554	135.43
20.5641	135.96
20.5743	138.88
20.5845	136.63
20.5946	137.88
20.6048	138.03
20.615	134.89
20.6251	135.14
20.6353	133.57
20.6455	134.37
20.6556	135.43
20.6658	136.80
20.676	134.68
20.6861	135.63
20.6963	134.48
20.7065	131.78
20.7166	132.09
20.7268	131.62
20.7369	131.70
20.7471	132.03
20.7573	132.49
20.7674	128.02
20.7776	131.76
20.7878	131.35
20.7979	129.70
20.8081	130.27
20.8183	129.30
20.8284	128.08
20.8386	128.96
20.8488	127.25
20.8589	125.52
20.8691	125.88
20.8792	126.98
20.8894	126.32
20.8996	127.62
20.9097	125.63
20.9199	124.80
20.9301	124.70
20.9402	125.00
20.9504	122.41
20.9606	124.59
20.9707	122.78
20.9809	121.37
20.9911	124.47
21.0012	122.67
21.0114	121.41
21.0216	122.09
21.0317	120.88
21.0419	120.14
21.052	121.05
21.0622	120.15
21.0724	119.18
21.0825	119.22
21.0927	119.12
21.1029	118.87
21.113	120.39
21.1232	119.43
21.1334	116.78
21.1435	117.88
21.1537	117.85
21.1639	116.58
21.174	118.98
21.1842	116.96
21.1943	115.65
21.2045	117.87
21.2147	117.41
21.2248	118.24
21.235	117.33
21.2452	117.13
21.2553	116.23
21.2655	114.40
21.2757	115.43
21.2858	114.66
21.296	114.48
21.3062	116.41
21.3163	115.72
21.3265	117.42
21.3366	115.71
21.3468	113.43
21.357	116.54
21.3671	115.41
21.3773	114.35
21.3875	114.68
21.3976	115.36
21.4078	114.62
21.418	115.30
21.4281	116.21
21.4383	115.32
21.4485	115.46
21.4586	114.91
21.4688	113.13
21.479	117.19
21.4891	116.12
21.4993	115.93
21.5094	115.99
21.5196	118.65
21.5298	116.54
21.5399	116.97
21.5501	117.09
21.5603	116.69
21.5704	118.40
21.5806	118.79
21.5908	117.97
21.6009	119.21
21.6111	118.79
21.6213	118.59
21.6314	118.32
21.6416	119.80
21.6517	120.78
21.6619	121.32
21.6721	120.91
21.6822	121.48
21.6924	123.98
21.7026	123.26
21.7127	122.56
21.7229	125.15
21.7331	124.05
21.7432	124.54
21.7534	125.51
21.7636	125.20
21.7737	125.30
21.7839	126.51
21.7941	126.46
21.8042	127.19
21.8144	128.80
21.8245	132.81
21.8347	129.06
21.8449	130.90
21.855	131.79
21.8652	131.89
21.8754	134.62
21.8855	131.69
21.8957	133.79
21.9059	135.62
21.916	135.88
21.9262	134.89
21.9364	136.04
21.9465	136.41
21.9567	137.98
21.9668	138.58
21.977	138.96
21.9872	137.29
21.9973	137.72
22.0075	141.72
22.0177	141.09
22.0278	143.28
22.038	140.47
22.0482	141.43
22.0583	141.48
22.0685	144.12
22.0787	141.41
22.0888	142.60
22.099	142.62
22.1092	143.46
22.1193	143.88
22.1295	145.57
22.1396	144.24
22.1498	148.37
22.16	145.66
22.1701	147.42
22.1803	146.70
22.1905	147.62
22.2006	148.45
22.2108	148.45
22.221	149.13
22.2311	147.66
22.2413	148.86
22.2515	148.43
22.2616	146.77
22.2718	147.87
22.2819	149.46
22.2921	147.52
22.3023	149.13
22.3124	149.09
22.3226	149.18
22.3328	150.18
22.3429	150.82
22.3531	149.69
22.3633	150.34
22.3734	149.02
22.3836	147.84
22.3938	148.02
22.4039	149.98
22.4141	145.87
22.4243	149.13
22.4344	147.10
22.4446	146.17
22.4547	145.93
22.4649	146.95
22.4751	145.64
22.4852	146.49
22.4954	144.46
22.5056	145.00
22.5157	144.80
22.5259	142.50
22.5361	142.26
22.5462	140.01
22.5564	142.14
22.5666	140.08
22.5767	139.54
22.5869	140.02
22.597	138.46
22.6072	139.02
22.6174	140.15
22.6275	136.30
22.6377	137.65
22.6479	136.30
22.658	137.24
22.6682	134.21
22.6784	132.59
22.6885	133.43
22.6987	133.27
22.7089	132.21
22.719	129.29
22.7292	132.18
22.7394	130.77
22.7495	127.38
22.7597	128.65
22.7698	129.48
22.78	125.74
22.7902	125.60
22.8003	126.17
22.8105	124.35
22.8207	124.15
22.8308	124.05
22.841	122.55
22.8512	122.73
22.8613	120.66
22.8715	119.29
22.8817	120.81
22.8918	120.04
22.902	117.93
22.9121	117.88
22.9223	116.79
22.9325	116.18
22.9426	115.65
22.9528	115.93
22.963	112.46
22.9731	113.38
22.9833	113.14
22.9935	111.39
23.0036	112.57
23.0138	111.30
23.024	110.84
23.0341	109.77
23.0443	110.02
23.0545	108.81
23.0646	106.65
23.0748	107.21
23.0849	106.18
23.0951	106.71
23.1053	106.96
23.1154	105.45
23.1256	105.49
23.1358	104.21
23.1459	103.63
23.1561	103.28
23.1663	101.99
23.1764	99.41
23.1866	102.25
23.1968	100.66
23.2069	98.10
23.2171	99.73
23.2272	98.28
23.2374	98.31
23.2476	98.11
23.2577	98.68
23.2679	95.43
23.2781	96.35
23.2882	96.62
23.2984	94.23
23.3086	94.40
23.3187	93.71
23.3289	94.46
23.3391	95.02
23.3492	92.61
23.3594	92.08
23.3695	91.68
23.3797	92.48
23.3899	89.15
23.4	92.26
23.4102	91.42
23.4204	88.61
23.4305	89.18
23.4407	87.63
23.4509	87.09
23.461	88.73
23.4712	86.93
23.4814	87.82
23.4915	87.29
23.5017	87.07
23.5119	85.78
23.522	84.84
23.5322	84.89
23.5423	84.54
23.5525	84.47
23.5627	84.18
23.5728	83.31
23.583	84.50
23.5932	82.19
23.6033	82.96
23.6135	81.87
23.6237	82.73
23.6338	82.12
23.644	80.82
23.6542	82.09
23.6643	81.16
23.6745	81.13
23.6846	80.17
23.6948	80.02
23.705	80.62
23.7151	79.87
23.7253	79.16
23.7355	79.40
23.7456	77.12
23.7558	77.52
23.766	77.73
23.7761	77.04
23.7863	78.95
23.7965	77.23
23.8066	76.80
23.8168	77.09
23.827	77.21
23.8371	75.91
23.8473	76.22
23.8574	75.20
23.8676	75.19
23.8778	74.88
23.8879	74.68
23.8981	74.80
23.9083	73.16
23.9184	74.38
23.9286	74.45
23.9388	73.74
23.9489	72.54
23.9591	72.09
23.9693	73.18
23.9794	72.82
23.9896	73.23
23.9997	71.96
24.0099	73.32
24.0201	72.95
24.0302	72.13
24.0404	71.96
24.0506	72.09
24.0607	70.74
24.0709	70.96
24.0811	71.18
24.0912	69.73
24.1014	69.81
24.1116	69.62
24.1217	68.96
24.1319	70.57
24.1421	69.17
24.1522	71.06
24.1624	70.16
24.1725	68.87
24.1827	68.17
24.1929	67.80
24.203	68.75
24.2132	68.33
24.2234	68.05
24.2335	68.62
24.2437	68.04
24.2539	68.29
24.264	67.47
24.2742	66.70
24.2844	68.12
24.2945	67.00
24.3047	67.04
24.3148	67.16
24.325	67.63
24.3352	66.57
24.3453	67.12
24.3555	65.81
24.3657	65.48
24.3758	66.63
24.386	66.00
24.3962	64.87
24.4063	65.36
24.4165	66.13
24.4267	65.26
24.4368	65.03
24.447	66.47
24.4572	65.37
24.4673	64.14
24.4775	65.55
24.4876	63.49
24.4978	62.54
24.508	63.71
24.5181	64.33
24.5283	63.91
24.5385	64.32
24.5486	64.01
24.5588	63.44
24.569	63.71
24.5791	62.66
24.5893	63.67
24.5995	63.59
24.6096	63.62
24.6198	62.57
24.6299	62.89
24.6401	64.34
24.6503	63.84
24.6604	62.72
24.6706	63.02
24.6808	62.36
24.6909	62.83
24.7011	63.00
24.7113	60.98
24.7214	61.20
24.7316	61.79
24.7418	62.13
24.7519	62.05
24.7621	63.59
24.7723	61.43
24.7824	61.16
24.7926	61.91
24.8027	60.73
24.8129	60.41
24.8231	62.31
24.8332	61.05
24.8434	61.75
24.8536	62.45
24.8637	59.93
24.8739	61.75
24.8841	60.34
24.8942	60.45
24.9044	60.77
24.9146	60.85
24.9247	60.09
24.9349	59.95
24.945	60.92
24.9552	60.96
24.9654	60.70
24.9755	59.55
24.9857	59.38
24.9959	59.83
25.006	58.46
25.0162	60.84
25.0264	59.09
25.0365	58.74
25.0467	58.66
25.0569	59.90
25.067	59.24
25.0772	58.65
25.0874	59.66
25.0975	58.83
25.1077	58.58
25.1178	60.12
25.128	59.24
25.1382	59.61
25.1483	58.82
25.1585	59.65
25.1687	59.21
25.1788	59.13
25.189	58.36
25.1992	60.07
25.2093	58.49
25.2195	57.26
25.2297	58.71
25.2398	58.04
25.25	57.96
25.2601	57.62
25.2703	57.32
25.2805	57.95
25.2906	58.24
25.3008	58.03
25.311	57.71
25.3211	56.91
25.3313	57.45
25.3415	56.34
25.3516	57.26
25.3618	57.09
25.372	56.85
25.3821	58.00
25.3923	56.16
25.4024	56.35
25.4126	57.51
25.4228	56.47
25.4329	57.42
25.4431	57.09
25.4533	56.73
25.4634	56.95
25.4736	56.80
25.4838	56.30
25.4939	57.31
25.5041	56.43
25.5143	57.54
25.5244	55.23
25.5346	56.18
25.5448	55.88
25.5549	56.12
25.5651	56.21
25.5752	56.21
25.5854	55.27
25.5956	55.31
25.6057	56.17
25.6159	54.97
25.6261	55.30
25.6362	56.37
25.6464	55.98
25.6566	56.08
25.6667	55.49
25.6769	55.10
25.6871	55.52
25.6972	55.49
25.7074	55.68
25.7175	55.40
25.7277	56.10
25.7379	54.57
25.748	55.99
25.7582	53.99
25.7684	54.83
25.7785	55.09
25.7887	54.06
25.7989	54.25
25.809	55.52
25.8192	55.26
25.8294	54.60
25.8395	55.30
25.8497	54.55
25.8599	53.43
25.87	55.23
25.8802	54.19
25.8903	54.31
25.9005	54.62
25.9107	54.85
25.9208	53.97
25.931	54.97
25.9412	52.95
25.9513	52.60
25.9615	53.95
25.9717	54.79
25.9818	53.88
25.992	54.37
26.0022	53.37
26.0123	53.98
26.0225	54.09
26.0326	53.15
26.0428	53.20
26.053	53.66
26.0631	53.35
26.0733	54.54
26.0835	53.34
26.0936	52.88
26.1038	52.15
26.114	53.37
26.1241	53.09
26.1343	52.69
26.1445	53.38
26.1546	52.90
26.1648	51.96
26.175	53.15
26.1851	52.77
26.1953	52.79
26.2054	52.84
26.2156	52.21
26.2258	53.35
26.2359	53.53
26.2461	52.23
26.2563	53.30
26.2664	51.79
26.2766	52.89
26.2868	53.12
26.2969	52.47
26.3071	52.46
26.3173	52.49
26.3274	52.17
26.3376	51.70
26.3477	51.31
26.3579	51.90
26.3681	51.32
26.3782	51.37
26.3884	51.63
26.3986	52.12
26.4087	52.65
26.4189	51.18
26.4291	52.35
26.4392	52.21
26.4494	50.43
26.4596	52.46
26.4697	50.94
26.4799	50.28
26.4901	51.33
26.5002	51.53
26.5104	51.35
26.5205	50.56
26.5307	50.47
26.5409	51.66
26.551	51.13
26.5612	51.59
26.5714	50.91
26.5815	52.04
26.5917	51.46
26.6019	50.69
26.612	51.02
26.6222	49.70
26.6324	51.55
26.6425	49.88
26.6527	49.79
26.6628	49.38
26.673	51.36
26.6832	50.53
26.6933	50.53
26.7035	51.23
26.7137	50.08
26.7238	50.90
26.734	50.41
26.7442	50.37
26.7543	50.23
26.7645	49.98
26.7747	50.70
26.7848	49.41
26.795	50.94
26.8052	49.59
26.8153	50.34
26.8255	49.41
26.8356	50.22
26.8458	49.96
26.856	50.43
26.8661	49.80
26.8763	51.31
26.8865	50.63
26.8966	50.30
26.9068	49.30
26.917	50.59
26.9271	49.13
26.9373	51.38
26.9475	49.84
26.9576	49.88
26.9678	50.66
26.9779	49.84
26.9881	48.82
26.9983	50.52
27.0084	49.74
27.0186	50.35
27.0288	49.02
27.0389	50.01
27.0491	49.95
27.0593	50.82
27.0694	49.89
27.0796	49.99
27.0898	49.82
27.0999	50.22
27.1101	49.57
27.1202	49.06
27.1304	49.24
27.1406	49.13
27.1507	49.59
27.1609	49.44
27.1711	50.08
27.1812	50.03
27.1914	50.20
27.2016	49.93
27.2117	48.52
27.2219	48.74
27.2321	49.12
27.2422	48.95
27.2524	50.07
27.2626	49.99
27.2727	49.34
27.2829	50.12
27.293	49.67
27.3032	49.53
27.3134	50.87
27.3235	48.96
27.3337	49.83
27.3439	49.76
27.354	49.36
27.3642	50.36
27.3744	49.94
27.3845	48.84
27.3947	49.96
27.4049	50.32
27.415	49.88
27.4252	49.95
27.4353	49.95
27.4455	49.95
27.4557	50.54
27.4658	50.21
27.476	49.46
27.4862	49.45
27.4963	50.52
27.5065	51.01
27.5167	49.05
27.5268	50.32
27.537	50.20
27.5472	50.02
27.5573	49.71
27.5675	51.34
27.5777	49.96
27.5878	51.67
27.598	51.88
27.6081	51.24
27.6183	52.37
27.6285	50.34
27.6386	51.72
27.6488	51.52
27.659	51.30
27.6691	52.26
27.6793	51.42
27.6895	52.34
27.6996	51.83
27.7098	52.62
27.72	52.45
27.7301	52.75
27.7403	52.37
27.7504	52.20
27.7606	52.88
27.7708	53.60
27.7809	53.09
27.7911	53.99
27.8013	53.35
27.8114	53.45
27.8216	54.38
27.8318	53.24
27.8419	54.05
27.8521	54.01
27.8623	53.52
27.8724	54.04
27.8826	55.76
27.8928	55.26
27.9029	56.08
27.9131	55.65
27.9232	56.37
27.9334	56.26
27.9436	55.37
27.9537	57.51
27.9639	56.27
27.9741	57.15
27.9842	56.94
27.9944	58.31
28.0046	56.87
28.0147	58.45
28.0249	57.71
28.0351	56.93
28.0452	58.61
28.0554	57.82
28.0655	59.13
28.0757	59.41
28.0859	59.38
28.096	58.26
28.1062	59.12
28.1164	58.77
28.1265	60.04
28.1367	59.40
28.1469	60.70
28.157	60.89
28.1672	59.30
28.1774	60.55
28.1875	61.84
28.1977	61.43
28.2079	61.34
28.218	60.96
28.2282	62.22
28.2383	63.24
28.2485	63.12
28.2587	62.99
28.2688	63.66
28.279	63.51
28.2892	63.54
28.2993	64.23
28.3095	63.01
28.3197	64.63
28.3298	63.90
28.34	63.02
28.3502	62.96
28.3603	63.71
28.3705	62.91
28.3806	64.04
28.3908	62.85
28.401	63.04
28.4111	63.67
28.4213	62.79
28.4315	63.68
28.4416	63.97
28.4518	63.41
28.462	63.69
28.4721	63.32
28.4823	62.79
28.4925	61.46
28.5026	63.52
28.5128	63.18
28.523	62.72
28.5331	64.21
28.5433	63.79
28.5534	62.65
28.5636	62.71
28.5738	64.48
28.5839	62.55
28.5941	62.30
28.6043	62.39
28.6144	60.87
28.6246	61.44
28.6348	62.01
28.6449	60.29
28.6551	60.42
28.6653	61.17
28.6754	60.76
28.6856	59.85
28.6957	60.71
28.7059	60.61
28.7161	60.53
28.7262	59.43
28.7364	59.82
28.7466	59.77
28.7567	59.79
28.7669	57.90
28.7771	58.18
28.7872	58.69
28.7974	57.73
28.8076	58.71
28.8177	58.66
28.8279	57.10
28.8381	57.96
28.8482	56.47
28.8584	56.68
28.8685	56.61
28.8787	57.09
28.8889	56.80
28.899	56.65
28.9092	55.56
28.9194	54.96
28.9295	54.66
28.9397	54.90
28.9499	54.48
28.96	54.65
28.9702	54.41
28.9804	54.40
28.9905	54.73
29.0007	54.49
29.0108	53.79
29.021	52.95
29.0312	52.59
29.0413	53.62
29.0515	51.04
29.0617	52.74
29.0718	52.29
29.082	52.74
29.0922	53.45
29.1023	51.52
29.1125	51.20
29.1227	52.26
29.1328	51.37
29.143	50.78
29.1531	50.99
29.1633	50.55
29.1735	51.10
29.1836	49.92
29.1938	50.35
29.204	49.98
29.2141	49.37
29.2243	49.53
29.2345	49.68
29.2446	50.12
29.2548	49.27
29.265	49.15
29.2751	47.65
29.2853	48.96
29.2955	48.72
29.3056	49.04
29.3158	48.20
29.3259	48.60
29.3361	47.54
29.3463	49.30
29.3564	47.60
29.3666	48.63
29.3768	46.99
29.3869	47.60
29.3971	47.52
29.4073	46.28
29.4174	47.66
29.4276	46.94
29.4378	47.05
29.4479	46.66
29.4581	46.08
29.4682	45.95
29.4784	46.37
29.4886	46.40
29.4987	45.10
29.5089	46.47
29.5191	45.30
29.5292	44.49
29.5394	45.46
29.5496	46.31
29.5597	44.63
29.5699	45.54
29.5801	45.77
29.5902	45.18
29.6004	44.80
29.6106	46.62
29.6207	45.06
29.6309	44.04
29.641	44.37
29.6512	44.67
29.6614	44.86
29.6715	45.13
29.6817	44.62
29.6919	45.80
29.702	43.82
29.7122	44.51
29.7224	44.33
29.7325	44.03
29.7427	44.79
29.7529	43.06
29.763	44.55
29.7732	43.87
29.7833	43.62
29.7935	43.98
29.8037	43.82
29.8138	42.63
29.824	44.51
29.8342	43.70
29.8443	43.24
29.8545	44.91
29.8647	42.83
29.8748	44.00
29.885	43.14
29.8952	42.37
29.9053	43.44
29.9155	44.65
29.9257	42.85
29.9358	43.43
29.946	42.96
29.9561	41.96
29.9663	43.32
29.9765	43.33
29.9866	41.74
29.9968	42.26
30.007	42.49
30.0171	42.49
30.0273	42.20
30.0375	42.84
30.0476	41.86
30.0578	42.94
30.068	42.15
30.0781	42.01
30.0883	41.84
30.0984	41.96
30.1086	41.07
30.1188	41.32
30.1289	41.48
30.1391	41.54
30.1493	41.70
30.1594	41.52
30.1696	40.78
30.1798	41.37
30.1899	41.42
30.2001	40.31
30.2103	41.52
30.2204	40.34
30.2306	40.30
30.2408	41.18
30.2509	39.96
30.2611	40.45
30.2712	39.96
30.2814	41.27
30.2916	39.34
30.3017	39.76
30.3119	40.92
30.3221	38.83
30.3322	39.62
30.3424	39.81
30.3526	39.19
30.3627	38.77
30.3729	39.95
30.3831	39.43
30.3932	39.46
30.4034	38.83
30.4135	38.36
30.4237	39.30
30.4339	39.57
30.444	38.26
30.4542	38.59
30.4644	38.14
30.4745	38.91
30.4847	37.96
30.4949	38.39
30.505	38.03
30.5152	37.75
30.5254	38.87
30.5355	37.51
30.5457	37.01
30.5559	37.69
30.566	37.23
30.5762	37.02
30.5863	37.31
30.5965	37.03
30.6067	37.75
30.6168	37.02
30.627	38.68
30.6372	37.07
30.6473	37.45
30.6575	37.47
30.6677	37.10
30.6778	37.41
30.688	36.71
30.6982	37.17
30.7083	36.49
30.7185	36.59
30.7286	37.37
30.7388	36.57
30.749	36.26
30.7591	36.56
30.7693	36.27
30.7795	36.91
30.7896	35.93
30.7998	35.91
30.81	35.40
30.8201	36.36
30.8303	35.74
30.8405	36.21
30.8506	36.21
30.8608	36.29
30.871	35.82
30.8811	35.74
30.8913	36.12
30.9014	34.55
30.9116	36.49
30.9218	36.23
30.9319	34.90
30.9421	35.41
30.9523	35.80
30.9624	35.34
30.9726	35.50
30.9828	35.56
30.9929	35.15
31.0031	35.95
31.0133	34.92
31.0234	34.88
31.0336	34.87
31.0437	35.90
31.0539	34.57
31.0641	35.10
31.0742	34.66
31.0844	34.77
31.0946	35.33
31.1047	34.34
31.1149	34.35
31.1251	35.47
31.1352	34.21
31.1454	33.38
31.1556	35.35
31.1657	34.63
31.1759	35.52
31.186	34.88
31.1962	34.93
31.2064	33.93
31.2165	34.37
31.2267	34.24
31.2369	34.08
31.247	34.27
31.2572	34.35
31.2674	34.16
31.2775	34.17
31.2877	34.18
31.2979	34.09
31.308	34.63
31.3182	34.42
31.3284	34.05
31.3385	34.07
31.3487	34.36
31.3588	34.44
31.369	34.40
31.3792	33.13
31.3893	34.11
31.3995	33.15
31.4097	34.11
31.4198	33.27
31.43	33.93
31.4402	34.34
31.4503	33.45
31.4605	33.71
31.4707	33.49
31.4808	33.91
31.491	33.64
31.5011	33.87
31.5113	33.50
31.5215	33.04
31.5316	33.65
31.5418	33.40
31.552	33.34
31.5621	33.47
31.5723	34.60
31.5825	33.72
31.5926	33.88
31.6028	33.29
31.613	33.25
31.6231	33.72
31.6333	32.80
31.6435	33.70
31.6536	32.01
31.6638	32.23
31.6739	32.86
31.6841	32.66
31.6943	33.07
31.7044	33.04
31.7146	34.26
31.7248	32.53
31.7349	32.86
31.7451	32.91
31.7553	32.63
31.7654	33.79
31.7756	33.74
31.7858	33.11
31.7959	33.13
31.8061	33.35
31.8162	33.05
31.8264	32.88
31.8366	33.02
31.8467	32.00
31.8569	32.21
31.8671	33.37
31.8772	32.83
31.8874	32.29
31.8976	33.38
31.9077	32.98
31.9179	33.13
31.9281	33.13
31.9382	32.05
31.9484	32.19
31.9586	33.05
31.9687	32.99
31.9789	32.31
31.989	32.52
31.9992	32.73
32.0094	32.56
32.0195	32.72
32.0297	33.42
32.0399	33.21
32.05	33.60
32.0602	32.43
32.0704	32.68
32.0805	32.23
32.0907	33.10
32.1009	32.66
32.111	32.85
32.1212	31.76
32.1313	32.46
32.1415	33.01
32.1517	31.79
32.1618	32.76
32.172	32.40
32.1822	33.21
32.1923	32.50
32.2025	32.79
32.2127	32.79
32.2228	32.71
32.233	33.03
32.2432	33.64
32.2533	32.48
32.2635	33.09
32.2737	32.15
32.2838	32.25
32.294	33.87
32.3041	32.24
32.3143	32.40
32.3245	32.32
32.3346	33.15
32.3448	32.10
32.355	32.28
32.3651	32.77
32.3753	32.23
32.3855	32.57
32.3956	31.66
32.4058	32.34
32.416	32.18
32.4261	31.49
32.4363	32.63
32.4464	33.12
32.4566	32.13
32.4668	32.49
32.4769	32.92
32.4871	32.30
32.4973	32.34
32.5074	32.02
32.5176	33.26
32.5278	32.79
32.5379	33.01
32.5481	32.28
32.5583	32.57
32.5684	33.02
32.5786	31.98
32.5888	32.22
32.5989	32.69
32.6091	31.05
32.6192	31.96
32.6294	31.96
32.6396	32.23
32.6497	32.25
32.6599	32.49
32.6701	31.62
32.6802	32.20
32.6904	32.59
32.7006	31.35
32.7107	32.05
32.7209	32.20
32.7311	31.89
32.7412	31.63
32.7514	31.64
32.7615	32.48
32.7717	32.09
32.7819	32.20
32.792	32.67
32.8022	31.74
32.8124	32.00
32.8225	32.01
32.8327	31.57
32.8429	32.26
32.853	32.00
32.8632	32.24
32.8734	32.50
32.8835	32.12
32.8937	31.90
32.9039	32.52
32.914	32.21
32.9242	32.74
32.9343	32.30
32.9445	32.05
32.9547	31.54
32.9648	32.54
32.975	31.70
32.9852	31.95
32.9953	32.60
33.0055	32.12
33.0157	32.20
33.0258	33.40
33.036	32.07
33.0462	32.62
33.0563	32.97
33.0665	32.41
33.0766	31.52
33.0868	32.73
33.097	32.06
33.1071	32.09
33.1173	31.79
33.1275	32.22
33.1376	31.84
33.1478	32.17
33.158	31.76
33.1681	31.30
33.1783	33.27
33.1885	32.21
33.1986	31.62
33.2088	32.66
33.2189	31.97
33.2291	32.18
33.2393	32.13
33.2494	32.09
33.2596	31.53
33.2698	32.66
33.2799	32.71
33.2901	32.02
33.3003	32.23
33.3104	32.29
33.3206	32.60
33.3308	32.93
33.3409	32.24
33.3511	32.76
33.3613	32.33
33.3714	32.80
33.3816	33.10
33.3917	32.63
33.4019	32.20
33.4121	33.01
33.4222	32.23
33.4324	31.76
33.4426	32.49
33.4527	32.11
33.4629	32.18
33.4731	32.67
33.4832	31.78
33.4934	31.40
33.5036	32.30
33.5137	32.51
33.5239	31.84
33.534	30.90
33.5442	31.43
33.5544	31.87
33.5645	32.12
33.5747	31.38
33.5849	30.80
33.595	31.97
33.6052	30.65
33.6154	30.68
33.6255	31.60
33.6357	31.27
33.6459	31.08
33.656	31.05
33.6662	30.55
33.6764	30.64
33.6865	30.76
33.6967	30.88
33.7068	30.78
33.717	31.41
33.7272	30.58
33.7373	29.95
33.7475	30.14
33.7577	29.40
33.7678	29.74
33.778	30.48
33.7882	30.66
33.7983	29.18
33.8085	29.87
33.8187	29.00
33.8288	30.01
33.839	29.85
33.8491	29.26
33.8593	29.32
33.8695	28.86
33.8796	29.88
33.8898	29.40
33.9	29.42
33.9101	29.10
33.9203	29.38
33.9305	29.00
33.9406	28.87
33.9508	28.96
33.961	28.84
33.9711	27.73
33.9813	28.84
33.9915	28.54
34.0016	29.06
34.0118	28.41
34.0219	28.65
34.0321	28.30
34.0423	28.30
34.0524	28.50
34.0626	26.71
34.0728	28.02
34.0829	28.07
34.0931	28.10
34.1033	27.78
34.1134	28.20
34.1236	28.61
34.1338	27.91
34.1439	27.78
34.1541	28.41
34.1642	28.40
34.1744	27.36
34.1846	27.88
34.1947	28.04
34.2049	27.48
34.2151	27.41
34.2252	27.65
34.2354	27.59
34.2456	27.39
34.2557	27.55
34.2659	27.12
34.2761	27.35
34.2862	27.05
34.2964	27.09
34.3066	26.76
34.3167	27.57
34.3269	27.68
34.337	27.44
34.3472	27.91
34.3574	27.07
34.3675	27.28
34.3777	26.72
34.3879	27.23
34.398	26.97
34.4082	27.79
34.4184	26.57
34.4285	27.26
34.4387	27.01
34.4489	26.88
34.459	26.44
34.4692	26.74
34.4793	27.10
34.4895	27.41
34.4997	27.05
34.5098	26.17
34.52	26.74
34.5302	27.46
34.5403	26.22
34.5505	26.27
34.5607	26.64
34.5708	26.79
34.581	27.01
34.5912	26.99
34.6013	26.50
34.6115	26.87
34.6217	26.76
34.6318	27.13
34.642	26.05
34.6521	26.25
34.6623	26.22
34.6725	26.90
34.6826	26.50
34.6928	26.27
34.703	26.41
34.7131	25.91
34.7233	26.16
34.7335	26.13
34.7436	26.47
34.7538	26.79
34.764	26.33
34.7741	26.25
34.7843	26.37
34.7944	26.07
34.8046	26.13
34.8148	26.12
34.8249	25.93
34.8351	26.60
34.8453	26.46
34.8554	26.46
34.8656	26.37
34.8758	26.16
34.8859	26.29
34.8961	25.95
34.9063	26.08
34.9164	26.46
34.9266	25.62
34.9367	26.32
34.9469	26.73
34.9571	25.57
34.9672	25.91
34.9774	25.66
34.9876	26.23
34.9977	26.06
35.0079	25.99
35.0181	25.47
35.0282	26.13
35.0384	25.40
35.0486	25.94
35.0587	26.07
35.0689	25.69
35.0791	26.01
35.0892	25.99
35.0994	25.10
35.1095	26.11
35.1197	25.37
35.1299	26.07
35.14	26.29
35.1502	25.60
35.1604	25.97
35.1705	25.25
35.1807	25.48
35.1909	25.95
35.201	25.82
35.2112	26.13
35.2214	25.15
35.2315	25.75
35.2417	26.02
35.2518	25.38
35.262	25.68
35.2722	25.64
35.2823	25.05
35.2925	25.16
35.3027	25.27
35.3128	25.54
35.323	25.23
35.3332	25.23
35.3433	25.15
35.3535	25.85
35.3637	25.57
35.3738	25.18
35.384	25.75
35.3942	24.79
35.4043	24.93
35.4145	25.30
35.4246	25.44
35.4348	25.47
35.445	25.69
35.4551	25.18
35.4653	25.70
35.4755	25.82
35.4856	25.72
35.4958	25.54
35.506	25.21
35.5161	24.93
35.5263	25.36
35.5365	25.10
35.5466	25.24
35.5568	25.65
35.5669	25.53
35.5771	24.59
35.5873	26.05
35.5974	25.75
35.6076	24.77
35.6178	25.21
35.6279	25.27
35.6381	24.82
35.6483	25.47
35.6584	25.49
35.6686	24.38
35.6788	25.17
35.6889	25.04
35.6991	24.91
35.7093	25.60
35.7194	25.40
35.7296	25.45
35.7397	25.54
35.7499	25.45
35.7601	25.29
35.7702	25.01
35.7804	25.16
35.7906	25.09
35.8007	25.24
35.8109	25.09
35.8211	25.28
35.8312	24.94
35.8414	25.34
35.8516	25.37
35.8617	24.97
35.8719	25.20
35.882	24.59
35.8922	25.02
35.9024	25.60
35.9125	25.02
35.9227	25.41
35.9329	24.42
35.943	25.29
35.9532	25.32
35.9634	25.01
35.9735	25.16
35.9837	25.78
35.9939	24.88
36.004	24.79
36.0142	25.32
36.0244	25.07
36.0345	25.37
36.0447	24.53
36.0548	24.51
36.065	24.71
36.0752	24.38
36.0853	25.31
36.0955	25.09
36.1057	24.73
36.1158	25.24
36.126	25.33
36.1362	23.91
36.1463	25.18
36.1565	25.21
36.1667	24.94
36.1768	24.70
36.187	25.43
36.1971	24.77
36.2073	25.27
36.2175	25.69
36.2276	25.63
36.2378	25.04
36.248	24.85
36.2581	25.97
36.2683	24.11
36.2785	25.01
36.2886	24.56
36.2988	25.49
36.309	25.39
36.3191	24.74
36.3293	24.52
36.3395	25.17
36.3496	25.02
36.3598	25.33
36.3699	24.90
36.3801	26.31
36.3903	24.71
36.4004	25.23
36.4106	23.99
36.4208	25.32
36.4309	24.95
36.4411	25.02
36.4513	24.47
36.4614	24.98
36.4716	25.70
36.4818	25.44
36.4919	25.34
36.5021	24.77
36.5122	25.82
36.5224	24.49
36.5326	25.19
36.5427	25.43
36.5529	25.61
36.5631	25.03
36.5732	24.99
36.5834	24.99
36.5936	25.14
36.6037	25.18
36.6139	25.33
36.6241	24.98
36.6342	24.97
36.6444	24.93
36.6546	24.90
36.6647	24.59
36.6749	25.48
36.685	25.13
36.6952	25.51
36.7054	25.12
36.7155	25.84
36.7257	25.70
36.7359	25.51
36.746	25.18
36.7562	25.35
36.7664	25.77
36.7765	25.16
36.7867	24.86
36.7969	25.20
36.807	24.95
36.8172	24.65
36.8273	25.26
36.8375	25.41
36.8477	25.29
36.8578	25.67
36.868	25.71
36.8782	24.81
36.8883	25.23
36.8985	25.32
36.9087	25.48
36.9188	25.66
36.929	24.67
36.9392	25.10
36.9493	25.18
36.9595	24.66
36.9696	25.33
36.9798	25.73
36.99	26.08
37.0001	25.73
37.0103	25.85
37.0205	25.24
37.0306	25.42
37.0408	25.66
37.051	25.52
37.0611	25.82
37.0713	25.71
37.0815	25.91
37.0916	25.87
37.1018	26.34
37.112	25.81
37.1221	25.60
37.1323	25.43
37.1424	25.49
37.1526	25.39
37.1628	25.70
37.1729	26.43
37.1831	25.78
37.1933	26.01
37.2034	25.45
37.2136	25.87
37.2238	25.73
37.2339	25.99
37.2441	26.02
37.2543	25.40
37.2644	25.85
37.2746	25.32
37.2847	25.80
37.2949	25.84
37.3051	25.98
37.3152	25.99
37.3254	26.67
37.3356	26.85
37.3457	26.34
37.3559	26.69
37.3661	25.91
37.3762	26.57
37.3864	26.52
37.3966	25.91
37.4067	26.20
37.4169	25.67
37.4271	26.72
37.4372	26.48
37.4474	26.65
37.4575	26.20
37.4677	26.73
37.4779	26.73
37.488	26.46
37.4982	26.63
37.5084	26.27
37.5185	27.54
37.5287	26.67
37.5389	26.40
37.549	26.41
37.5592	26.92
37.5694	26.91
37.5795	26.90
37.5897	26.66
37.5998	26.13
37.61	26.40
37.6202	26.48
37.6303	26.72
37.6405	27.51
37.6507	26.41
37.6608	26.65
37.671	27.03
37.6812	27.53
37.6913	27.45
37.7015	26.92
37.7117	27.64
37.7218	27.09
37.732	27.48
37.7422	27.70
37.7523	27.85
37.7625	27.38
37.7726	27.09
37.7828	27.22
37.793	27.14
37.8031	28.38
37.8133	27.40
37.8235	26.78
37.8336	26.95
37.8438	27.94
37.854	27.74
37.8641	27.73
37.8743	27.20
37.8845	27.74
37.8946	27.68
37.9048	27.19
37.9149	27.51
37.9251	28.18
37.9353	28.67
37.9454	28.14
37.9556	28.14
37.9658	28.68
37.9759	27.49
37.9861	27.37
37.9963	28.99
38.0064	28.33
38.0166	28.04
38.0268	27.65
38.0369	28.66
38.0471	28.45
38.0573	28.23
38.0674	29.35
38.0776	27.99
38.0877	28.10
38.0979	28.34
38.1081	27.88
38.1182	28.16
38.1284	28.33
38.1386	28.02
38.1487	27.77
38.1589	28.76
38.1691	28.68
38.1792	29.23
38.1894	28.45
38.1996	28.30
38.2097	28.81
38.2199	28.26
38.23	28.32
38.2402	29.80
38.2504	28.73
38.2605	29.67
38.2707	28.46
38.2809	28.12
38.291	28.53
38.3012	28.91
38.3114	28.79
38.3215	28.61
38.3317	29.48
38.3419	28.79
38.352	29.07
38.3622	28.60
38.3724	28.19
38.3825	28.85
38.3927	29.37
38.4028	29.27
38.413	28.60
38.4232	29.15
38.4333	28.91
38.4435	28.32
38.4537	28.85
38.4638	29.20
38.474	28.99
38.4842	28.95
38.4943	29.57
38.5045	28.55
38.5147	28.68
38.5248	28.70
38.535	29.23
38.5451	28.92
38.5553	29.25
38.5655	29.07
38.5756	28.49
38.5858	28.46
38.596	28.95
38.6061	28.51
38.6163	28.62
38.6265	29.19
38.6366	28.76
38.6468	29.77
38.657	27.79
38.6671	28.46
38.6773	28.63
38.6875	29.28
38.6976	28.91
38.7078	28.57
38.7179	29.28
38.7281	28.01
38.7383	28.76
38.7484	28.69
38.7586	28.60
38.7688	28.54
38.7789	28.05
38.7891	28.10
38.7993	28.09
38.8094	28.87
38.8196	28.87
38.8298	28.27
38.8399	27.88
38.8501	28.84
38.8602	28.16
38.8704	28.48
38.8806	28.45
38.8907	28.74
38.9009	28.05
38.9111	28.04
38.9212	28.70
38.9314	27.92
38.9416	27.92
38.9517	28.74
38.9619	28.34
38.9721	27.52
38.9822	28.88
38.9924	27.92
39.0025	27.99
39.0127	27.50
39.0229	28.35
39.033	27.79
39.0432	28.67
39.0534	28.13
39.0635	27.32
39.0737	27.73
39.0839	27.42
39.094	27.98
39.1042	27.34
39.1144	28.02
39.1245	27.58
39.1347	27.34
39.1449	28.55
39.155	27.71
39.1652	27.48
39.1753	27.31
39.1855	27.77
39.1957	27.95
39.2058	27.15
39.216	27.16
39.2262	26.53
39.2363	26.99
39.2465	27.16
39.2567	27.47
39.2668	26.77
39.277	26.99
39.2872	26.65
39.2973	27.10
39.3075	27.30
39.3176	26.03
39.3278	27.47
39.338	27.05
39.3481	26.60
39.3583	27.21
39.3685	27.18
39.3786	26.32
39.3888	26.52
39.399	26.60
39.4091	27.35
39.4193	26.41
39.4295	27.29
39.4396	26.39
39.4498	26.26
39.46	26.77
39.4701	26.07
39.4803	26.11
39.4904	27.21
39.5006	27.19
39.5108	25.40
39.5209	26.66
39.5311	25.84
39.5413	26.64
39.5514	27.05
39.5616	25.63
39.5718	26.36
39.5819	26.35
39.5921	26.01
39.6023	25.74
39.6124	25.95
39.6226	26.01
39.6327	26.21
39.6429	25.90
39.6531	25.51
39.6632	25.96
39.6734	25.68
39.6836	25.99
39.6937	25.53
39.7039	25.93
39.7141	26.48
39.7242	25.96
39.7344	25.57
39.7446	25.98
39.7547	25.48
39.7649	25.82
39.7751	26.23
39.7852	25.38
39.7954	25.55
39.8055	25.63
39.8157	25.84
39.8259	25.58
39.836	25.84
39.8462	25.73
39.8564	25.65
39.8665	25.07
39.8767	25.73
39.8869	25.31
39.897	25.62
39.9072	24.59
39.9174	25.55
39.9275	25.39
39.9377	25.16
39.9478	25.12
39.958	24.68
39.9682	25.16
39.9783	24.74
39.9885	25.41
39.9987	25.55
