5.0023	51.96
5.0125	51.99
5.0226	50.93
5.0328	49.71
5.043	50.34
5.0531	49.59
5.0633	47.45
5.0735	47.58
5.0836	45.96
5.0938	46.72
5.1039	46.14
5.1141	46.77
5.1243	45.55
5.1344	45.31
5.1446	43.44
5.1548	42.29
5.1649	41.98
5.1751	43.59
5.1853	40.58
5.1954	40.54
5.2056	40.09
5.2158	39.84
5.2259	40.15
5.2361	39.03
5.2462	38.32
5.2564	39.04
5.2666	37.52
5.2767	37.77
5.2869	37.66
5.2971	36.64
5.3072	35.52
5.3174	35.55
5.3276	36.23
5.3377	35.46
5.3479	34.22
5.3581	34.52
5.3682	34.29
5.3784	33.90
5.3886	34.16
5.3987	33.45
5.4089	33.30
5.419	32.94
5.4292	32.04
5.4394	32.34
5.4495	31.99
5.4597	31.12
5.4699	31.70
5.48	31.51
5.4902	31.03
5.5004	30.21
5.5105	30.84
5.5207	29.95
5.5309	30.62
5.541	29.80
5.5512	29.84
5.5613	29.29
5.5715	29.82
5.5817	28.85
5.5918	28.64
5.602	29.04
5.6122	27.67
5.6223	28.49
5.6325	28.48
5.6427	27.29
5.6528	28.21
5.663	27.76
5.6732	27.56
5.6833	27.38
5.6935	27.27
5.7036	26.87
5.7138	26.48
5.724	27.48
5.7341	26.95
5.7443	26.41
5.7545	26.33
5.7646	25.64
5.7748	26.46
5.785	27.06
5.7951	25.60
5.8053	25.25
5.8155	26.18
5.8256	25.52
5.8358	26.18
5.846	26.37
5.8561	25.38
5.8663	25.85
5.8764	25.70
5.8866	26.27
5.8968	25.73
5.9069	25.75
5.9171	25.91
5.9273	25.76
5.9374	26.28
5.9476	25.58
5.9578	25.64
5.9679	25.28
5.9781	25.62
5.9883	25.50
5.9984	25.53
6.0086	25.25
6.0187	25.43
6.0289	25.52
6.0391	26.04
6.0492	25.54
6.0594	25.40
6.0696	25.18
6.0797	25.71
6.0899	25.23
6.1001	25.56
6.1102	24.80
6.1204	25.03
6.1306	24.72
6.1407	24.52
6.1509	24.45
6.1611	25.06
6.1712	24.78
6.1814	24.64
6.1915	24.75
6.2017	24.69
6.2119	24.57
6.222	24.85
6.2322	24.93
6.2424	24.97
6.2525	24.98
6.2627	25.32
6.2729	24.81
6.283	24.98
6.2932	24.90
6.3034	25.61
6.3135	25.15
6.3237	25.25
6.3338	25.20
6.344	24.96
6.3542	24.43
6.3643	24.52
6.3745	24.77
6.3847	24.45
6.3948	24.88
6.405	25.68
6.4152	25.45
6.4253	25.08
6.4355	25.30
6.4457	25.20
6.4558	25.42
6.466	25.67
6.4762	24.26
6.4863	25.96
6.4965	25.15
6.5066	24.84
6.5168	25.11
6.527	25.23
6.5371	25.32
6.5473	25.12
6.5575	25.29
6.5676	25.65
6.5778	26.13
6.588	25.62
6.5981	24.88
6.6083	24.88
6.6185	25.29
6.6286	25.53
6.6388	25.48
6.6489	25.83
6.6591	25.85
6.6693	25.63
6.6794	25.66
6.6896	25.10
6.6998	25.85
6.7099	26.42
6.7201	25.92
6.7303	25.74
6.7404	26.33
6.7506	25.13
6.7608	26.00
6.7709	25.67
6.7811	26.06
6.7913	25.65
6.8014	26.63
6.8116	26.95
6.8217	26.78
6.8319	25.88
6.8421	25.51
6.8522	25.88
6.8624	26.18
6.8726	26.06
6.8827	26.40
6.8929	26.20
6.9031	25.58
6.9132	25.68
6.9234	25.94
6.9336	26.11
6.9437	26.42
6.9539	25.93
6.964	26.31
6.9742	26.63
6.9844	25.70
6.9945	26.74
7.0047	26.38
7.0149	26.62
7.025	27.14
7.0352	25.87
7.0454	27.15
7.0555	25.88
7.0657	26.36
7.0759	26.18
7.086	27.04
7.0962	26.65
7.1064	26.35
7.1165	26.59
7.1267	26.43
7.1368	26.59
7.147	26.66
7.1572	27.40
7.1673	26.52
7.1775	26.72
7.1877	27.83
7.1978	27.37
7.208	26.53
7.2182	27.26
7.2283	26.41
7.2385	27.19
7.2487	27.10
7.2588	27.36
7.269	25.74
7.2791	27.24
7.2893	28.33
7.2995	27.25
7.3096	27.54
7.3198	27.76
7.33	26.82
7.3401	27.49
7.3503	27.02
7.3605	27.25
7.3706	27.42
7.3808	27.60
7.391	27.43
7.4011	27.91
7.4113	27.92
7.4215	26.86
7.4316	26.63
7.4418	26.87
7.4519	27.63
7.4621	27.63
7.4723	27.56
7.4824	27.77
7.4926	27.49
7.5028	27.93
7.5129	27.54
7.5231	26.72
7.5333	28.21
7.5434	27.85
7.5536	28.27
7.5638	27.95
7.5739	27.82
7.5841	28.48
7.5942	28.26
7.6044	27.82
7.6146	27.41
7.6247	28.29
7.6349	28.15
7.6451	27.97
7.6552	28.00
7.6654	27.99
7.6756	27.87
7.6857	28.01
7.6959	27.66
7.7061	28.13
7.7162	28.04
7.7264	27.57
7.7365	28.40
7.7467	28.52
7.7569	28.76
7.767	28.81
7.7772	28.60
7.7874	27.07
7.7975	28.46
7.8077	29.41
7.8179	27.74
7.828	28.16
7.8382	29.35
7.8484	28.12
7.8585	29.24
7.8687	29.69
7.8789	29.75
7.889	29.44
7.8992	28.39
7.9093	29.11
7.9195	29.09
7.9297	29.43
7.9398	28.85
7.95	29.39
7.9602	30.09
7.9703	28.89
7.9805	29.15
7.9907	29.05
8.0008	29.07
8.011	29.20
8.0212	29.48
8.0313	28.82
8.0415	29.45
8.0516	29.87
8.0618	29.61
8.072	29.45
8.0821	29.63
8.0923	29.19
8.1025	28.91
8.1126	29.43
8.1228	28.83
8.133	30.39
8.1431	30.35
8.1533	30.18
8.1635	29.98
8.1736	30.66
8.1838	29.50
8.194	30.12
8.2041	29.67
8.2143	28.83
8.2244	29.90
8.2346	29.29
8.2448	29.64
8.2549	30.41
8.2651	30.21
8.2753	30.15
8.2854	30.04
8.2956	30.10
8.3058	29.15
8.3159	30.39
8.3261	31.23
8.3363	30.60
8.3464	30.16
8.3566	30.94
8.3667	30.82
8.3769	30.54
8.3871	30.73
8.3972	29.95
8.4074	31.11
8.4176	30.95
8.4277	30.01
8.4379	30.10
8.4481	31.19
8.4582	29.66
8.4684	30.88
8.4786	31.30
8.4887	30.51
8.4989	31.41
8.5091	30.79
8.5192	30.40
8.5294	31.01
8.5395	31.09
8.5497	29.60
8.5599	31.32
8.57	30.91
8.5802	30.46
8.5904	30.57
8.6005	31.45
8.6107	30.68
8.6209	31.29
8.631	30.70
8.6412	30.61
8.6514	31.47
8.6615	31.46
8.6717	30.53
8.6818	31.74
8.692	30.77
8.7022	30.79
8.7123	31.68
8.7225	32.27
8.7327	32.28
8.7428	31.55
8.753	30.96
8.7632	31.14
8.7733	31.85
8.7835	31.88
8.7937	30.69
8.8038	32.29
8.814	32.32
8.8242	31.88
8.8343	31.88
8.8445	32.10
8.8546	31.65
8.8648	31.63
8.875	32.13
8.8851	32.31
8.8953	31.98
8.9055	32.36
8.9156	30.97
8.9258	31.32
8.936	31.76
8.9461	31.74
8.9563	31.84
8.9665	31.72
8.9766	31.69
8.9868	32.22
8.9969	32.03
9.0071	31.32
9.0173	32.07
9.0274	31.86
9.0376	32.37
9.0478	32.85
9.0579	32.85
9.0681	32.27
9.0783	32.46
9.0884	31.68
9.0986	32.21
9.1088	31.98
9.1189	32.66
9.1291	32.77
9.1393	32.36
9.1494	32.83
9.1596	33.07
9.1697	32.39
9.1799	33.02
9.1901	32.60
9.2002	32.96
9.2104	32.38
9.2206	32.15
9.2307	32.97
9.2409	32.15
9.2511	32.52
9.2612	33.30
9.2714	32.98
9.2816	32.14
9.2917	33.85
9.3019	33.10
9.312	32.62
9.3222	33.43
9.3324	32.98
9.3425	33.15
9.3527	32.77
9.3629	32.84
9.373	32.99
9.3832	33.01
9.3934	33.53
9.4035	33.44
9.4137	32.82
9.4239	34.34
9.434	33.64
9.4442	33.32
9.4544	33.19
9.4645	33.40
9.4747	33.95
9.4848	32.77
9.495	33.29
9.5052	33.59
9.5153	33.91
9.5255	33.52
9.5357	33.69
9.5458	33.66
9.556	33.34
9.5662	33.27
9.5763	33.74
9.5865	33.16
9.5967	34.74
9.6068	34.18
9.617	33.21
9.6271	33.24
9.6373	34.26
9.6475	33.52
9.6576	33.35
9.6678	33.95
9.678	33.68
9.6881	33.62
9.6983	34.60
9.7085	33.91
9.7186	33.85
9.7288	33.85
9.739	34.15
9.7491	34.84
9.7593	33.73
9.7694	34.27
9.7796	33.33
9.7898	34.02
9.7999	34.29
9.8101	34.84
9.8203	33.94
9.8304	34.38
9.8406	34.18
9.8508	34.10
9.8609	33.93
9.8711	33.83
9.8813	35.05
9.8914	33.60
9.9016	34.74
9.9118	34.60
9.9219	34.79
9.9321	34.21
9.9422	34.73
9.9524	34.95
9.9626	35.02
9.9727	35.02
9.9829	35.16
9.9931	34.70
10.0032	34.84
10.0134	33.60
10.0236	35.29
10.0337	34.71
10.0439	34.46
10.0541	35.23
10.0642	34.78
10.0744	34.73
10.0845	34.60
10.0947	35.21
10.1049	35.73
10.115	34.66
10.1252	35.02
10.1354	34.99
10.1455	35.32
10.1557	35.13
10.1659	34.69
10.176	35.63
10.1862	35.30
10.1964	34.14
10.2065	35.49
10.2167	34.79
10.2269	35.54
10.237	34.96
10.2472	35.57
10.2573	35.41
10.2675	35.15
10.2777	35.64
10.2878	35.27
10.298	35.12
10.3082	35.49
10.3183	36.10
10.3285	35.83
10.3387	35.62
10.3488	35.88
10.359	35.68
10.3692	35.33
10.3793	35.34
10.3895	36.02
10.3996	35.48
10.4098	36.26
10.42	35.66
10.4301	35.88
10.4403	35.99
10.4505	35.41
10.4606	36.42
10.4708	35.52
10.481	35.93
10.4911	35.98
10.5013	35.74
10.5115	36.01
10.5216	35.03
10.5318	36.47
10.542	37.01
10.5521	36.80
10.5623	36.69
10.5724	36.82
10.5826	37.40
10.5928	35.52
10.6029	36.98
10.6131	36.52
10.6233	36.32
10.6334	36.05
10.6436	37.13
10.6538	35.69
10.6639	37.24
10.6741	36.95
10.6843	36.53
10.6944	37.63
10.7046	36.71
10.7147	36.83
10.7249	37.27
10.7351	37.00
10.7452	37.60
10.7554	36.84
10.7656	36.92
10.7757	36.95
10.7859	36.63
10.7961	37.65
10.8062	37.75
10.8164	36.59
10.8266	37.36
10.8367	37.02
10.8469	37.82
10.8571	36.95
10.8672	36.97
10.8774	37.62
10.8875	37.34
10.8977	37.63
10.9079	37.54
10.918	37.44
10.9282	37.77
10.9384	37.55
10.9485	37.07
10.9587	38.36
10.9689	37.70
10.979	37.23
10.9892	37.96
10.9994	37.49
11.0095	37.24
11.0197	38.30
11.0298	37.61
11.04	38.07
11.0502	38.48
11.0603	36.79
11.0705	37.69
11.0807	36.93
11.0908	37.43
11.101	38.54
11.1112	38.16
11.1213	38.68
11.1315	38.22
11.1417	38.24
11.1518	38.03
11.162	37.89
11.1722	37.62
11.1823	38.76
11.1925	38.65
11.2026	38.88
11.2128	38.13
11.223	38.50
11.2331	37.62
11.2433	39.10
11.2535	38.35
11.2636	37.54
11.2738	39.29
11.284	39.24
11.2941	38.02
11.3043	38.94
11.3145	38.43
11.3246	38.29
11.3348	39.76
11.3449	38.21
11.3551	39.71
11.3653	39.17
11.3754	38.86
11.3856	39.07
11.3958	39.48
11.4059	39.56
11.4161	39.17
11.4263	39.55
11.4364	39.20
11.4466	38.93
11.4568	38.28
11.4669	39.10
11.4771	39.00
11.4873	39.94
11.4974	38.86
11.5076	39.96
11.5177	39.86
11.5279	39.14
11.5381	38.94
11.5482	39.46
11.5584	39.73
11.5686	39.46
11.5787	39.16
11.5889	39.96
11.5991	39.98
11.6092	40.44
11.6194	39.65
11.6296	39.01
11.6397	40.10
11.6499	40.09
11.66	41.20
11.6702	40.36
11.6804	40.35
11.6905	40.06
11.7007	41.45
11.7109	39.90
11.721	40.35
11.7312	40.80
11.7414	40.48
11.7515	40.55
11.7617	39.96
11.7719	41.34
11.782	40.77
11.7922	41.33
11.8023	40.76
11.8125	40.59
11.8227	41.14
11.8328	40.49
11.843	40.27
11.8532	41.01
11.8633	41.43
11.8735	40.43
11.8837	41.01
11.8938	40.87
11.904	40.63
11.9142	41.14
11.9243	41.91
11.9345	41.87
11.9447	41.30
11.9548	40.70
11.965	41.81
11.9751	41.23
11.9853	41.80
11.9955	41.37
12.0056	41.62
12.0158	42.01
12.026	41.91
12.0361	42.24
12.0463	42.56
12.0565	42.18
12.0666	42.21
12.0768	41.28
12.087	42.32
12.0971	41.98
12.1073	42.34
12.1174	41.95
12.1276	42.85
12.1378	41.77
12.1479	42.54
12.1581	42.76
12.1683	42.88
12.1784	43.34
12.1886	43.32
12.1988	42.40
12.2089	42.80
12.2191	42.82
12.2293	44.02
12.2394	42.90
12.2496	41.74
12.2598	43.25
12.2699	42.63
12.2801	43.05
12.2902	42.13
12.3004	43.49
12.3106	43.19
12.3207	43.07
12.3309	43.49
12.3411	43.87
12.3512	42.65
12.3614	43.52
12.3716	44.11
12.3817	43.67
12.3919	44.78
12.4021	44.26
12.4122	43.71
12.4224	43.43
12.4325	44.46
12.4427	43.82
12.4529	43.45
12.463	44.08
12.4732	44.58
12.4834	44.42
12.4935	43.93
12.5037	44.74
12.5139	44.26
12.524	43.60
12.5342	44.71
12.5444	44.63
12.5545	44.92
12.5647	45.02
12.5749	45.77
12.585	45.36
12.5952	45.51
12.6053	45.06
12.6155	45.81
12.6257	45.82
12.6358	45.61
12.646	46.49
12.6562	45.09
12.6663	45.05
12.6765	46.21
12.6867	45.90
12.6968	45.94
12.707	46.02
12.7172	46.26
12.7273	45.59
12.7375	45.96
12.7476	45.48
12.7578	47.46
12.768	46.13
12.7781	45.05
12.7883	46.84
12.7985	47.02
12.8086	46.43
12.8188	47.02
12.829	46.26
12.8391	47.02
12.8493	46.88
12.8595	47.17
12.8696	46.51
12.8798	46.87
12.89	46.24
12.9001	45.70
12.9103	47.68
12.9204	47.26
12.9306	47.47
12.9408	47.51
12.9509	46.32
12.9611	46.10
12.9713	47.14
12.9814	47.82
12.9916	48.10
13.0018	47.36
13.0119	48.66
13.0221	48.27
13.0323	49.59
13.0424	46.98
13.0526	47.74
13.0627	48.14
13.0729	48.40
13.0831	47.48
13.0932	48.76
13.1034	47.33
13.1136	48.82
13.1237	48.39
13.1339	48.27
13.1441	48.86
13.1542	48.82
13.1644	50.12
13.1746	49.34
13.1847	48.86
13.1949	49.60
13.2051	48.75
13.2152	48.13
13.2254	50.04
13.2355	49.20
13.2457	50.10
13.2559	49.77
13.266	50.29
13.2762	48.95
13.2864	50.51
13.2965	50.64
13.3067	49.85
13.3169	50.03
13.327	50.33
13.3372	49.74
13.3474	51.21
13.3575	50.68
13.3677	49.92
13.3778	51.41
13.388	50.65
13.3982	51.00
13.4083	51.45
13.4185	51.42
13.4287	51.83
13.4388	50.07
13.449	51.24
13.4592	50.98
13.4693	51.24
13.4795	51.28
13.4897	53.01
13.4998	52.22
13.51	51.22
13.5201	52.54
13.5303	52.64
13.5405	52.24
13.5506	52.70
13.5608	53.05
13.571	52.19
13.5811	53.15
13.5913	53.20
13.6015	54.40
13.6116	52.90
13.6218	54.27
13.632	52.99
13.6421	53.91
13.6523	53.27
13.6625	52.63
13.6726	52.92
13.6828	53.07
13.6929	53.09
13.7031	53.84
13.7133	53.10
13.7234	53.72
13.7336	54.95
13.7438	54.40
13.7539	54.94
13.7641	55.17
13.7743	53.86
13.7844	55.52
13.7946	54.99
13.8048	54.87
13.8149	54.79
13.8251	55.23
13.8352	55.13
13.8454	55.01
13.8556	55.61
13.8657	54.98
13.8759	54.64
13.8861	55.59
13.8962	55.33
13.9064	56.19
13.9166	56.46
13.9267	54.91
13.9369	57.20
13.9471	57.51
13.9572	56.07
13.9674	56.04
13.9776	56.49
13.9877	56.80
13.9979	57.59
14.008	56.15
14.0182	56.65
14.0284	57.47
14.0385	57.24
14.0487	55.91
14.0589	56.95
14.069	58.08
14.0792	58.27
14.0894	58.30
14.0995	58.68
14.1097	57.19
14.1199	58.31
14.13	57.62
14.1402	58.82
14.1503	58.43
14.1605	57.70
14.1707	59.07
14.1808	58.26
14.191	58.49
14.2012	60.04
14.2113	59.13
14.2215	59.61
14.2317	59.21
14.2418	60.71
14.252	59.98
14.2622	60.39
14.2723	60.00
14.2825	60.40
14.2927	59.95
14.3028	59.98
14.313	60.23
14.3231	59.22
14.3333	60.54
14.3435	60.85
14.3536	60.46
14.3638	61.45
14.374	61.49
14.3841	60.59
14.3943	60.65
14.4045	61.65
14.4146	61.56
14.4248	61.22
14.435	62.16
14.4451	61.66
14.4553	62.01
14.4654	62.83
14.4756	62.49
14.4858	61.93
14.4959	62.54
14.5061	62.34
14.5163	63.14
14.5264	64.21
14.5366	62.33
14.5468	62.60
14.5569	64.15
14.5671	64.11
14.5773	63.72
14.5874	63.20
14.5976	63.80
14.6078	63.70
14.6179	63.86
14.6281	64.79
14.6382	65.88
14.6484	64.27
14.6586	64.90
14.6687	64.12
14.6789	66.18
14.6891	65.01
14.6992	65.13
14.7094	65.09
14.7196	65.55
14.7297	66.05
14.7399	65.78
14.7501	67.16
14.7602	66.78
14.7704	65.99
14.7805	65.87
14.7907	66.43
14.8009	66.52
14.811	67.57
14.8212	67.40
14.8314	67.02
14.8415	67.01
14.8517	66.74
14.8619	66.99
14.872	68.28
14.8822	67.34
14.8924	69.23
14.9025	67.87
14.9127	67.29
14.9229	68.64
14.933	68.79
14.9432	67.10
14.9533	68.66
14.9635	68.77
14.9737	69.52
14.9838	69.57
14.994	69.98
15.0042	69.73
15.0143	69.95
15.0245	71.34
15.0347	71.53
15.0448	71.22
15.055	70.41
15.0652	71.68
15.0753	71.36
15.0855	71.25
15.0956	71.58
15.1058	70.92
15.116	70.87
15.1261	70.71
15.1363	72.03
15.1465	72.35
15.1566	72.07
15.1668	72.95
15.177	71.01
15.1871	72.04
15.1973	70.68
15.2075	72.80
15.2176	73.01
15.2278	73.03
15.238	73.43
15.2481	72.96
15.2583	74.17
15.2684	72.77
15.2786	72.46
15.2888	74.56
15.2989	72.93
15.3091	75.13
15.3193	72.88
15.3294	74.96
15.3396	76.18
15.3498	74.61
15.3599	75.88
15.3701	76.13
15.3803	75.38
15.3904	76.56
15.4006	75.15
15.4107	76.38
15.4209	75.68
15.4311	77.35
15.4412	76.70
15.4514	76.80
15.4616	76.46
15.4717	78.10
15.4819	76.56
15.4921	76.73
15.5022	76.50
15.5124	77.98
15.5226	77.91
15.5327	79.25
15.5429	79.55
15.553	78.16
15.5632	78.18
15.5734	79.51
15.5835	78.40
15.5937	79.85
15.6039	79.11
15.614	79.02
15.6242	80.07
15.6344	78.68
15.6445	80.51
15.6547	79.74
15.6649	80.79
15.675	80.14
15.6852	81.00
15.6954	81.07
15.7055	82.12
15.7157	81.32
15.7258	80.97
15.736	81.60
15.7462	81.50
15.7563	82.72
15.7665	83.16
15.7767	82.93
15.7868	82.47
15.797	82.77
15.8072	83.32
15.8173	82.39
15.8275	83.51
15.8377	84.58
15.8478	84.35
15.858	83.59
15.8681	84.82
15.8783	84.17
15.8885	84.26
15.8986	84.15
15.9088	83.68
15.919	85.64
15.9291	84.93
15.9393	86.91
15.9495	83.99
15.9596	86.55
15.9698	85.15
15.98	86.99
15.9901	86.60
16.0003	88.31
16.0105	87.00
16.0206	87.99
16.0308	85.57
16.0409	88.84
16.0511	87.45
16.0613	88.80
16.0714	89.36
16.0816	89.24
16.0918	88.97
16.1019	88.76
16.1121	89.81
16.1223	90.25
16.1324	89.35
16.1426	90.19
16.1528	88.75
16.1629	89.34
16.1731	90.32
16.1832	91.46
16.1934	90.45
16.2036	91.37
16.2137	91.24
16.2239	92.67
16.2341	92.32
16.2442	91.70
16.2544	91.49
16.2646	91.40
16.2747	92.07
16.2849	91.61
16.2951	92.40
16.3052	92.15
16.3154	92.53
16.3256	93.56
16.3357	93.56
16.3459	94.94
16.356	94.55
16.3662	94.63
16.3764	95.65
16.3865	94.04
16.3967	93.99
16.4069	95.21
16.417	96.53
16.4272	96.48
16.4374	95.64
16.4475	97.08
16.4577	94.01
16.4679	95.73
16.478	94.82
16.4882	97.40
16.4983	97.39
16.5085	97.52
16.5187	97.47
16.5288	99.45
16.539	98.09
16.5492	96.70
16.5593	98.91
16.5695	98.53
16.5797	98.48
16.5898	99.47
16.6	100.34
16.6102	99.34
16.6203	100.66
16.6305	101.73
16.6407	100.93
16.6508	100.55
16.661	102.17
16.6711	100.74
16.6813	101.72
16.6915	102.80
16.7016	102.63
16.7118	101.48
16.722	103.04
16.7321	103.95
16.7423	102.82
16.7525	104.65
16.7626	103.90
16.7728	102.29
16.783	105.83
16.7931	104.73
16.8033	104.85
16.8134	106.16
16.8236	105.23
16.8338	106.41
16.8439	105.48
16.8541	105.78
16.8643	104.35
16.8744	108.33
16.8846	105.52
16.8948	106.29
16.9049	106.55
16.9151	106.54
16.9253	107.46
16.9354	106.99
16.9456	109.09
16.9558	109.25
16.9659	109.25
16.9761	106.81
16.9862	108.18
16.9964	108.88
17.0066	108.34
17.0167	109.53
17.0269	109.20
17.0371	108.07
17.0472	110.59
17.0574	109.82
17.0676	110.01
17.0777	110.02
17.0879	111.18
17.0981	110.50
17.1082	110.60
17.1184	111.27
17.1285	111.02
17.1387	108.57
17.1489	112.22
17.159	111.25
17.1692	110.12
17.1794	111.84
17.1895	112.85
17.1997	112.56
17.2099	113.10
17.22	111.02
17.2302	113.54
17.2404	114.73
17.2505	113.98
17.2607	113.71
17.2709	114.01
17.281	112.54
17.2912	114.71
17.3013	115.32
17.3115	116.20
17.3217	115.82
17.3318	117.77
17.342	116.94
17.3522	115.77
17.3623	117.00
17.3725	116.45
17.3827	116.11
17.3928	116.96
17.403	116.20
17.4132	116.30
17.4233	120.57
17.4335	117.40
17.4436	119.99
17.4538	119.80
17.464	119.40
17.4741	120.80
17.4843	120.28
17.4945	120.69
17.5046	120.07
17.5148	121.33
17.525	119.44
17.5351	120.66
17.5453	120.94
17.5555	120.48
17.5656	120.90
17.5758	124.91
17.5859	122.48
17.5961	122.90
17.6063	124.52
17.6164	124.45
17.6266	123.99
17.6368	124.95
17.6469	125.77
17.6571	125.63
17.6673	126.94
17.6774	125.85
17.6876	126.03
17.6978	128.52
17.7079	129.23
17.7181	126.62
17.7283	128.24
17.7384	127.68
17.7486	128.94
17.7587	129.76
17.7689	129.71
17.7791	130.46
17.7892	131.38
17.7994	131.89
17.8096	133.05
17.8197	132.21
17.8299	133.82
17.8401	134.18
17.8502	134.79
17.8604	135.91
17.8706	132.94
17.8807	135.28
17.8909	135.80
17.901	136.82
17.9112	138.68
17.9214	137.24
17.9315	138.71
17.9417	140.19
17.9519	140.02
17.962	139.30
17.9722	142.04
17.9824	144.23
17.9925	144.57
18.0027	145.10
18.0129	146.43
18.023	146.88
18.0332	148.45
18.0434	147.92
18.0535	147.99
18.0637	150.77
18.0738	151.66
18.084	150.98
18.0942	153.33
18.1043	153.66
18.1145	155.53
18.1247	158.29
18.1348	160.25
18.145	156.30
18.1552	160.38
18.1653	160.42
18.1755	161.64
18.1857	163.20
18.1958	164.26
18.206	165.16
18.2161	171.79
18.2263	169.48
18.2365	171.89
18.2466	175.99
18.2568	175.20
18.267	176.28
18.2771	180.98
18.2873	181.24
18.2975	179.76
18.3076	186.63
18.3178	186.39
18.328	187.30
18.3381	191.92
18.3483	191.85
18.3585	193.91
18.3686	198.34
18.3788	195.88
18.3889	200.10
18.3991	205.07
18.4093	206.73
18.4194	206.96
18.4296	212.28
18.4398	214.35
18.4499	212.17
18.4601	218.34
18.4703	220.17
18.4804	220.26
18.4906	223.65
18.5008	226.32
18.5109	224.41
18.5211	230.49
18.5312	230.74
18.5414	232.52
18.5516	232.69
18.5617	236.42
18.5719	239.99
18.5821	237.65
18.5922	239.51
18.6024	241.83
18.6126	242.60
18.6227	243.74
18.6329	245.32
18.6431	244.77
18.6532	246.51
18.6634	246.43
18.6736	246.81
18.6837	248.37
18.6939	245.75
18.704	247.46
18.7142	249.98
18.7244	246.07
18.7345	247.16
18.7447	249.10
18.7549	246.21
18.765	246.80
18.7752	242.71
18.7854	241.47
18.7955	239.55
18.8057	238.94
18.8159	240.85
18.826	239.52
18.8362	235.66
18.8463	234.04
18.8565	233.32
18.8667	230.63
18.8768	229.54
18.887	226.45
18.8972	227.58
18.9073	221.70
18.9175	221.67
18.9277	220.04
18.9378	216.45
18.948	214.90
18.9582	209.80
18.9683	210.12
18.9785	206.76
18.9887	206.98
18.9988	201.10
19.009	202.71
19.0191	203.53
19.0293	197.63
19.0395	196.59
19.0496	196.51
19.0598	190.61
19.07	192.03
19.0801	188.72
19.0903	187.17
19.1005	185.26
19.1106	184.82
19.1208	180.61
19.131	180.32
19.1411	179.03
19.1513	177.70
19.1614	177.49
19.1716	173.93
19.1818	173.60
19.1919	174.10
19.2021	171.99
19.2123	169.35
19.2224	166.89
19.2326	167.51
19.2428	166.48
19.2529	163.34
19.2631	162.49
19.2733	161.88
19.2834	161.99
19.2936	160.80
19.3038	159.01
19.3139	158.76
19.3241	157.32
19.3342	154.70
19.3444	156.90
19.3546	155.47
19.3647	154.11
19.3749	153.66
19.3851	152.74
19.3952	151.29
19.4054	152.18
19.4156	148.21
19.4257	148.92
19.4359	151.41
19.4461	147.57
19.4562	146.41
19.4664	149.68
19.4765	146.23
19.4867	145.58
19.4969	146.36
19.507	145.20
19.5172	144.21
19.5274	144.23
19.5375	144.30
19.5477	141.27
19.5579	144.70
19.568	143.56
19.5782	142.16
19.5884	142.15
19.5985	143.02
19.6087	142.09
19.6188	140.51
19.629	138.77
19.6392	141.57
19.6493	138.55
19.6595	140.63
19.6697	140.34
19.6798	138.87
19.69	139.25
19.7002	137.27
19.7103	137.51
19.7205	137.27
19.7307	136.91
19.7408	136.90
19.751	138.57
19.7612	137.87
19.7713	138.10
19.7815	138.62
19.7916	136.48
19.8018	136.86
19.812	137.38
19.8221	136.22
19.8323	137.10
19.8425	136.45
19.8526	134.12
19.8628	136.34
19.873	136.30
19.8831	136.30
19.8933	133.92
19.9035	135.87
19.9136	134.90
19.9238	137.45
19.9339	135.57
19.9441	136.21
19.9543	134.01
19.9644	135.07
19.9746	135.63
19.9848	134.68
19.9949	135.95
20.0051	134.29
20.0153	135.60
20.0254	134.49
20.0356	135.83
20.0458	137.32
20.0559	135.49
20.0661	135.29
20.0763	135.91
20.0864	134.97
20.0966	136.54
20.1067	136.82
20.1169	136.36
20.1271	134.08
20.1372	136.79
20.1474	137.55
20.1576	136.48
20.1677	138.00
20.1779	135.82
20.1881	137.45
20.1982	137.98
20.2084	137.65
20.2186	137.03
20.2287	138.38
20.2389	138.94
20.249	136.34
20.2592	138.14
20.2694	138.80
20.2795	136.98
20.2897	137.50
20.2999	136.96
20.31	137.83
20.3202	140.52
20.3304	141.70
20.3405	138.37
20.3507	140.35
20.3609	139.77
20.371	140.07
20.3812	141.40
20.3914	141.23
20.4015	139.71
20.4117	142.50
20.4218	139.72
20.432	139.89
20.4422	142.37
20.4523	143.85
20.4625	141.40
20.4727	141.16
20.4828	142.87
20.493	142.36
20.5032	142.67
20.5133	142.62
20.5235	141.63
20.5337	143.09
20.5438	143.02
20.554	141.88
20.5641	140.63
20.5743	141.95
20.5845	141.00
20.5946	142.18
20.6048	143.57
20.615	141.52
20.6251	141.60
20.6353	142.05
20.6455	143.49
20.6556	144.53
20.6658	142.04
20.676	141.41
20.6861	143.14
20.6963	141.79
20.7065	141.33
20.7166	139.57
20.7268	140.68
20.7369	140.98
20.7471	139.77
20.7573	141.98
20.7674	139.33
20.7776	138.85
20.7878	140.77
20.7979	137.57
20.8081	138.70
20.8183	137.81
20.8284	136.46
20.8386	137.46
20.8488	136.98
20.8589	137.38
20.8691	135.23
20.8792	137.08
20.8894	135.65
20.8996	135.93
20.9097	135.20
20.9199	132.73
20.9301	133.21
20.9402	134.08
20.9504	131.95
20.9606	131.48
20.9707	131.76
20.9809	130.73
20.9911	132.38
21.0012	132.63
21.0114	129.75
21.0216	128.37
21.0317	131.23
21.0419	127.48
21.052	130.04
21.0622	127.52
21.0724	127.02
21.0825	126.68
21.0927	127.80
21.1029	126.07
21.113	125.57
21.1232	125.45
21.1334	124.25
21.1435	125.82
21.1537	124.53
21.1639	123.12
21.174	124.16
21.1842	125.58
21.1943	122.16
21.2045	123.41
21.2147	122.72
21.2248	121.90
21.235	121.87
21.2452	121.37
21.2553	120.95
21.2655	122.48
21.2757	122.15
21.2858	120.11
21.296	121.63
21.3062	118.76
21.3163	120.54
21.3265	120.60
21.3366	119.76
21.3468	117.85
21.357	119.25
21.3671	119.73
21.3773	118.36
21.3875	121.15
21.3976	120.48
21.4078	117.21
21.418	119.77
21.4281	118.92
21.4383	116.41
21.4485	120.32
21.4586	118.73
21.4688	115.99
21.479	119.12
21.4891	119.45
21.4993	117.62
21.5094	119.87
21.5196	117.76
21.5298	116.69
21.5399	116.85
21.5501	120.50
21.5603	119.09
21.5704	118.98
21.5806	120.28
21.5908	118.66
21.6009	119.33
21.6111	120.29
21.6213	118.02
21.6314	120.28
21.6416	120.15
21.6517	120.27
21.6619	121.71
21.6721	122.13
21.6822	121.48
21.6924	123.69
21.7026	122.65
21.7127	123.36
21.7229	123.12
21.7331	123.74
21.7432	122.83
21.7534	124.55
21.7636	127.14
21.7737	123.60
21.7839	126.99
21.7941	127.11
21.8042	127.41
21.8144	128.90
21.8245	127.22
21.8347	126.98
21.8449	130.24
21.855	129.75
21.8652	129.45
21.8754	132.38
21.8855	132.52
21.8957	130.40
21.9059	133.82
21.916	134.32
21.9262	132.79
21.9364	134.69
21.9465	135.23
21.9567	134.43
21.9668	136.17
21.977	137.51
21.9872	135.57
21.9973	137.05
22.0075	136.59
22.0177	136.74
22.0278	138.10
22.038	139.52
22.0482	140.43
22.0583	141.60
22.0685	142.57
22.0787	139.43
22.0888	142.24
22.099	142.90
22.1092	143.38
22.1193	143.62
22.1295	143.49
22.1396	144.24
22.1498	145.95
22.16	146.48
22.1701	145.16
22.1803	147.76
22.1905	146.83
22.2006	145.99
22.2108	149.78
22.221	149.59
22.2311	147.40
22.2413	151.02
22.2515	151.04
22.2616	149.63
22.2718	151.23
22.2819	152.28
22.2921	151.29
22.3023	153.86
22.3124	154.75
22.3226	151.43
22.3328	153.56
22.3429	154.99
22.3531	154.47
22.3633	153.61
22.3734	154.37
22.3836	155.35
22.3938	153.92
22.4039	155.96
22.4141	155.05
22.4243	157.34
22.4344	156.62
22.4446	154.37
22.4547	154.77
22.4649	154.32
22.4751	154.05
22.4852	153.33
22.4954	154.56
22.5056	152.71
22.5157	154.15
22.5259	155.01
22.5361	152.37
22.5462	153.32
22.5564	154.69
22.5666	152.12
22.5767	152.75
22.5869	152.55
22.597	151.95
22.6072	151.97
22.6174	150.18
22.6275	149.34
22.6377	149.05
22.6479	149.40
22.658	147.43
22.6682	147.29
22.6784	146.76
22.6885	144.57
22.6987	147.10
22.7089	145.33
22.719	143.72
22.7292	144.47
22.7394	144.62
22.7495	142.12
22.7597	141.69
22.7698	140.62
22.78	140.22
22.7902	141.87
22.8003	139.61
22.8105	136.87
22.8207	137.82
22.8308	138.02
22.841	136.09
22.8512	135.52
22.8613	135.33
22.8715	133.82
22.8817	132.88
22.8918	132.92
22.902	131.77
22.9121	130.94
22.9223	132.40
22.9325	130.05
22.9426	130.31
22.9528	127.59
22.963	126.95
22.9731	127.89
22.9833	125.39
22.9935	123.77
23.0036	124.05
23.0138	123.15
23.024	124.98
23.0341	121.38
23.0443	121.62
23.0545	120.29
23.0646	118.51
23.0748	119.19
23.0849	117.57
23.0951	115.66
23.1053	117.15
23.1154	116.48
23.1256	116.46
23.1358	115.21
23.1459	113.95
23.1561	113.85
23.1663	112.93
23.1764	112.66
23.1866	110.62
23.1968	111.85
23.2069	111.25
23.2171	110.19
23.2272	110.34
23.2374	108.85
23.2476	108.13
23.2577	108.43
23.2679	106.78
23.2781	106.76
23.2882	105.32
23.2984	106.23
23.3086	104.57
23.3187	103.34
23.3289	102.30
23.3391	102.33
23.3492	101.41
23.3594	101.10
23.3695	101.05
23.3797	100.99
23.3899	98.29
23.4	98.43
23.4102	99.05
23.4204	99.48
23.4305	98.40
23.4407	97.27
23.4509	97.74
23.461	96.77
23.4712	95.26
23.4814	94.52
23.4915	94.43
23.5017	93.50
23.5119	93.59
23.522	92.15
23.5322	93.59
23.5423	92.32
23.5525	93.48
23.5627	90.68
23.5728	91.43
23.583	92.24
23.5932	89.74
23.6033	89.99
23.6135	90.70
23.6237	88.92
23.6338	87.07
23.644	87.87
23.6542	87.57
23.6643	88.59
23.6745	86.65
23.6846	86.25
23.6948	86.34
23.705	86.23
23.7151	84.19
23.7253	83.74
23.7355	85.74
23.7456	84.46
23.7558	82.61
23.766	83.75
23.7761	82.70
23.7863	83.97
23.7965	82.86
23.8066	82.98
23.8168	81.72
23.827	82.32
23.8371	81.25
23.8473	80.55
23.8574	80.15
23.8676	80.31
23.8778	79.89
23.8879	79.40
23.8981	79.34
23.9083	78.21
23.9184	79.32
23.9286	78.04
23.9388	80.15
23.9489	77.80
23.9591	78.14
23.9693	78.41
23.9794	76.25
23.9896	76.62
23.9997	75.34
24.0099	77.27
24.0201	75.33
24.0302	75.00
24.0404	75.87
24.0506	75.14
24.0607	75.45
24.0709	76.26
24.0811	73.65
24.0912	74.84
24.1014	74.71
24.1116	74.24
24.1217	74.03
24.1319	73.11
24.1421	74.16
24.1522	73.20
24.1624	71.89
24.1725	72.65
24.1827	72.07
24.1929	72.81
24.203	72.34
24.2132	70.97
24.2234	71.43
24.2335	71.30
24.2437	70.82
24.2539	71.62
24.264	71.51
24.2742	69.95
24.2844	69.68
24.2945	69.55
24.3047	69.16
24.3148	70.10
24.325	69.26
24.3352	69.51
24.3453	69.12
24.3555	69.50
24.3657	70.57
24.3758	68.49
24.386	68.12
24.3962	68.96
24.4063	67.24
24.4165	69.99
24.4267	68.28
24.4368	68.45
24.447	68.60
24.4572	67.23
24.4673	67.85
24.4775	66.46
24.4876	67.54
24.4978	66.17
24.508	67.59
24.5181	68.40
24.5283	67.43
24.5385	65.37
24.5486	66.03
24.5588	66.20
24.569	66.10
24.5791	65.77
24.5893	65.41
24.5995	65.22
24.6096	65.44
24.6198	64.51
24.6299	65.24
24.6401	65.66
24.6503	65.54
24.6604	65.65
24.6706	65.47
24.6808	65.18
24.6909	65.53
24.7011	64.63
24.7113	65.41
24.7214	63.55
24.7316	64.95
24.7418	64.45
24.7519	64.51
24.7621	65.42
24.7723	64.59
24.7824	63.98
24.7926	63.43
24.8027	63.91
24.8129	63.54
24.8231	63.53
24.8332	62.84
24.8434	64.37
24.8536	63.56
24.8637	62.45
24.8739	63.04
24.8841	63.48
24.8942	62.83
24.9044	60.97
24.9146	62.44
24.9247	62.92
24.9349	62.49
24.945	63.05
24.9552	61.68
24.9654	60.86
24.9755	61.95
24.9857	61.72
24.9959	60.90
25.006	60.98
25.0162	60.95
25.0264	60.66
25.0365	63.07
25.0467	61.83
25.0569	61.87
25.067	61.23
25.0772	60.74
25.0874	61.81
25.0975	61.16
25.1077	61.84
25.1178	60.90
25.128	60.03
25.1382	60.71
25.1483	60.13
25.1585	60.70
25.1687	60.01
25.1788	60.39
25.189	60.96
25.1992	60.07
25.2093	59.38
25.2195	60.56
25.2297	60.04
25.2398	61.00
25.25	60.00
25.2601	59.23
25.2703	59.77
25.2805	58.93
25.2906	59.63
25.3008	59.33
25.311	59.60
25.3211	58.92
25.3313	59.63
25.3415	59.07
25.3516	59.41
25.3618	59.63
25.372	58.90
25.3821	59.55
25.3923	60.23
25.4024	58.67
25.4126	58.34
25.4228	57.46
25.4329	59.43
25.4431	59.42
25.4533	58.44
25.4634	57.07
25.4736	59.72
25.4838	58.18
25.4939	59.17
25.5041	58.26
25.5143	58.62
25.5244	58.93
25.5346	57.21
25.5448	58.36
25.5549	56.37
25.5651	57.29
25.5752	57.69
25.5854	58.38
25.5956	56.98
25.6057	57.41
25.6159	56.20
25.6261	57.38
25.6362	57.41
25.6464	57.30
25.6566	57.66
25.6667	57.00
25.6769	55.41
25.6871	56.98
25.6972	57.74
25.7074	57.46
25.7175	56.65
25.7277	57.30
25.7379	56.60
25.748	57.07
25.7582	56.63
25.7684	56.85
25.7785	57.31
25.7887	57.41
25.7989	55.93
25.809	57.30
25.8192	56.68
25.8294	55.62
25.8395	56.12
25.8497	56.21
25.8599	56.24
25.87	56.55
25.8802	55.01
25.8903	55.96
25.9005	54.91
25.9107	55.23
25.9208	54.98
25.931	56.20
25.9412	55.69
25.9513	55.42
25.9615	55.44
25.9717	54.65
25.9818	55.67
25.992	55.73
26.0022	55.56
26.0123	55.38
26.0225	56.88
26.0326	54.46
26.0428	54.88
26.053	54.68
26.0631	55.16
26.0733	54.19
26.0835	53.54
26.0936	54.64
26.1038	54.53
26.114	54.04
26.1241	53.99
26.1343	54.60
26.1445	53.82
26.1546	52.99
26.1648	54.97
26.175	55.34
26.1851	54.73
26.1953	54.02
26.2054	53.39
26.2156	54.54
26.2258	53.91
26.2359	53.97
26.2461	52.58
26.2563	54.14
26.2664	52.98
26.2766	53.70
26.2868	54.48
26.2969	53.54
26.3071	53.66
26.3173	52.88
26.3274	52.43
26.3376	54.04
26.3477	53.70
26.3579	53.81
26.3681	52.81
26.3782	52.42
26.3884	52.66
26.3986	52.59
26.4087	53.21
26.4189	54.15
26.4291	53.63
26.4392	53.49
26.4494	52.58
26.4596	52.68
26.4697	52.49
26.4799	52.74
26.4901	52.01
26.5002	52.99
26.5104	52.73
26.5205	53.10
26.5307	51.73
26.5409	52.01
26.551	52.63
26.5612	51.63
26.5714	51.68
26.5815	52.47
26.5917	51.84
26.6019	52.68
26.612	51.94
26.6222	51.60
26.6324	52.63
26.6425	51.62
26.6527	51.77
26.6628	53.30
26.673	51.40
26.6832	52.49
26.6933	51.84
26.7035	51.50
26.7137	52.25
26.7238	51.05
26.734	50.75
26.7442	52.25
26.7543	51.21
26.7645	52.07
26.7747	51.53
26.7848	51.12
26.795	51.51
26.8052	52.20
26.8153	51.68
26.8255	50.52
26.8356	50.94
26.8458	50.80
26.856	50.89
26.8661	50.97
26.8763	51.58
26.8865	51.16
26.8966	51.15
26.9068	50.56
26.917	51.82
26.9271	51.24
26.9373	50.89
26.9475	50.86
26.9576	51.35
26.9678	50.87
26.9779	51.65
26.9881	50.92
26.9983	49.52
27.0084	51.60
27.0186	50.64
27.0288	50.27
27.0389	50.55
27.0491	51.62
27.0593	51.66
27.0694	51.73
27.0796	51.17
27.0898	50.23
27.0999	50.85
27.1101	50.88
27.1202	50.80
27.1304	50.63
27.1406	50.55
27.1507	49.87
27.1609	51.59
27.1711	51.47
27.1812	50.98
27.1914	50.55
27.2016	50.68
27.2117	50.13
27.2219	49.67
27.2321	49.85
27.2422	50.60
27.2524	51.09
27.2626	49.34
27.2727	50.64
27.2829	49.63
27.293	49.26
27.3032	50.21
27.3134	49.05
27.3235	50.23
27.3337	49.75
27.3439	49.83
27.354	50.80
27.3642	51.25
27.3744	51.39
27.3845	51.24
27.3947	49.89
27.4049	50.71
27.415	50.59
27.4252	49.79
27.4353	50.15
27.4455	50.12
27.4557	49.85
27.4658	51.35
27.476	51.38
27.4862	50.67
27.4963	50.46
27.5065	51.54
27.5167	51.33
27.5268	50.69
27.537	51.87
27.5472	51.69
27.5573	51.04
27.5675	52.04
27.5777	51.68
27.5878	51.50
27.598	51.91
27.6081	51.69
27.6183	51.49
27.6285	50.98
27.6386	52.26
27.6488	53.18
27.659	53.38
27.6691	51.63
27.6793	52.16
27.6895	50.89
27.6996	53.41
27.7098	51.88
27.72	52.08
27.7301	52.95
27.7403	52.02
27.7504	52.38
27.7606	52.94
27.7708	54.22
27.7809	53.13
27.7911	53.11
27.8013	52.26
27.8114	53.04
27.8216	52.69
27.8318	53.76
27.8419	53.44
27.8521	52.87
27.8623	54.09
27.8724	54.53
27.8826	54.46
27.8928	55.27
27.9029	56.23
27.9131	54.51
27.9232	55.69
27.9334	55.84
27.9436	55.47
27.9537	56.05
27.9639	55.96
27.9741	57.34
27.9842	55.49
27.9944	55.99
28.0046	56.55
28.0147	56.55
28.0249	56.79
28.0351	56.52
28.0452	57.10
28.0554	56.91
28.0655	57.45
28.0757	58.75
28.0859	58.34
28.096	58.87
28.1062	58.12
28.1164	59.02
28.1265	58.70
28.1367	59.94
28.1469	59.59
28.157	60.79
28.1672	59.44
28.1774	60.31
28.1875	59.66
28.1977	60.99
28.2079	61.13
28.218	61.77
28.2282	60.76
28.2383	61.88
28.2485	62.26
28.2587	63.31
28.2688	62.96
28.279	62.36
28.2892	63.46
28.2993	63.21
28.3095	64.76
28.3197	63.12
28.3298	63.15
28.34	63.91
28.3502	62.95
28.3603	63.93
28.3705	64.81
28.3806	65.11
28.3908	65.54
28.401	64.57
28.4111	65.05
28.4213	66.02
28.4315	65.65
28.4416	64.49
28.4518	65.98
28.462	65.11
28.4721	65.16
28.4823	65.32
28.4925	64.74
28.5026	66.48
28.5128	65.84
28.523	65.08
28.5331	66.62
28.5433	65.73
28.5534	65.03
28.5636	65.25
28.5738	66.09
28.5839	65.35
28.5941	66.91
28.6043	65.62
28.6144	64.39
28.6246	66.32
28.6348	65.82
28.6449	64.83
28.6551	64.31
28.6653	66.05
28.6754	64.30
28.6856	65.87
28.6957	65.82
28.7059	64.65
28.7161	64.81
28.7262	64.70
28.7364	64.05
28.7466	62.95
28.7567	62.18
28.7669	62.56
28.7771	62.71
28.7872	62.21
28.7974	63.05
28.8076	62.96
28.8177	61.79
28.8279	62.13
28.8381	61.71
28.8482	63.91
28.8584	61.41
28.8685	59.59
28.8787	60.82
28.8889	61.12
28.899	60.57
28.9092	59.59
28.9194	59.86
28.9295	59.99
28.9397	59.05
28.9499	59.26
28.96	58.98
28.9702	58.74
28.9804	58.45
28.9905	57.35
29.0007	57.81
29.0108	57.65
29.021	57.39
29.0312	57.34
29.0413	57.08
29.0515	56.21
29.0617	57.25
29.0718	56.84
29.082	55.48
29.0922	56.95
29.1023	56.96
29.1125	55.43
29.1227	55.97
29.1328	53.07
29.143	54.71
29.1531	54.74
29.1633	54.03
29.1735	53.59
29.1836	54.08
29.1938	53.27
29.204	52.81
29.2141	52.91
29.2243	52.16
29.2345	52.38
29.2446	53.45
29.2548	53.87
29.265	52.19
29.2751	52.37
29.2853	50.87
29.2955	51.89
29.3056	51.92
29.3158	50.63
29.3259	50.53
29.3361	51.49
29.3463	49.96
29.3564	50.97
29.3666	50.14
29.3768	50.79
29.3869	50.40
29.3971	49.81
29.4073	49.78
29.4174	49.70
29.4276	50.08
29.4378	49.90
29.4479	48.82
29.4581	49.13
29.4682	48.07
29.4784	49.45
29.4886	48.57
29.4987	48.70
29.5089	48.18
29.5191	48.60
29.5292	47.23
29.5394	48.93
29.5496	48.20
29.5597	47.45
29.5699	47.62
29.5801	48.40
29.5902	47.50
29.6004	47.49
29.6106	47.21
29.6207	46.41
29.6309	46.44
29.641	47.07
29.6512	46.38
29.6614	46.48
29.6715	46.88
29.6817	47.00
29.6919	45.70
29.702	45.93
29.7122	45.74
29.7224	46.02
29.7325	45.95
29.7427	46.24
29.7529	45.96
29.763	46.16
29.7732	45.84
29.7833	45.08
29.7935	46.27
29.8037	46.51
29.8138	45.59
29.824	46.76
29.8342	45.39
29.8443	45.16
29.8545	45.14
29.8647	44.96
29.8748	44.34
29.885	45.58
29.8952	45.12
29.9053	45.17
29.9155	44.42
29.9257	45.35
29.9358	44.83
29.946	44.97
29.9561	44.66
29.9663	45.51
29.9765	45.09
29.9866	44.57
29.9968	44.22
30.007	44.84
30.0171	44.51
30.0273	43.93
30.0375	42.76
30.0476	43.02
30.0578	45.18
30.068	44.84
30.0781	44.06
30.0883	43.70
30.0984	43.71
30.1086	44.01
30.1188	43.92
30.1289	42.51
30.1391	42.94
30.1493	43.38
30.1594	42.99
30.1696	42.12
30.1798	43.49
30.1899	43.19
30.2001	42.34
30.2103	43.01
30.2204	42.63
30.2306	41.83
30.2408	41.82
30.2509	42.80
30.2611	42.80
30.2712	42.61
30.2814	41.34
30.2916	41.80
30.3017	41.05
30.3119	42.38
30.3221	41.79
30.3322	42.03
30.3424	41.27
30.3526	40.31
30.3627	41.80
30.3729	41.18
30.3831	40.62
30.3932	40.59
30.4034	42.16
30.4135	40.33
30.4237	41.40
30.4339	40.26
30.444	40.10
30.4542	40.83
30.4644	40.55
30.4745	40.55
30.4847	39.46
30.4949	40.02
30.505	39.42
30.5152	40.21
30.5254	39.73
30.5355	39.53
30.5457	40.69
30.5559	38.85
30.566	39.66
30.5762	39.36
30.5863	39.59
30.5965	39.09
30.6067	38.87
30.6168	39.03
30.627	39.45
30.6372	38.59
30.6473	38.90
30.6575	38.46
30.6677	37.43
30.6778	38.46
30.688	37.52
30.6982	38.22
30.7083	38.73
30.7185	37.68
30.7286	39.30
30.7388	38.54
30.749	37.13
30.7591	37.31
30.7693	37.43
30.7795	37.40
30.7896	38.70
30.7998	38.13
30.81	36.68
30.8201	36.92
30.8303	37.02
30.8405	37.26
30.8506	37.54
30.8608	37.48
30.871	37.46
30.8811	37.58
30.8913	37.52
30.9014	37.45
30.9116	37.41
30.9218	36.20
30.9319	36.71
30.9421	36.16
30.9523	36.68
30.9624	36.40
30.9726	36.38
30.9828	36.84
30.9929	35.80
31.0031	36.77
31.0133	36.61
31.0234	35.90
31.0336	36.65
31.0437	35.59
31.0539	35.09
31.0641	36.45
31.0742	35.75
31.0844	35.67
31.0946	35.55
31.1047	35.21
31.1149	35.82
31.1251	35.38
31.1352	35.75
31.1454	35.02
31.1556	35.77
31.1657	36.29
31.1759	35.15
31.186	35.68
31.1962	35.86
31.2064	35.27
31.2165	34.65
31.2267	35.76
31.2369	35.04
31.247	35.49
31.2572	35.23
31.2674	35.59
31.2775	35.60
31.2877	34.83
31.2979	35.30
31.308	34.77
31.3182	34.60
31.3284	35.28
31.3385	35.11
31.3487	35.18
31.3588	34.55
31.369	34.90
31.3792	35.79
31.3893	34.46
31.3995	33.91
31.4097	35.46
31.4198	34.92
31.43	34.34
31.4402	34.78
31.4503	34.76
31.4605	34.26
31.4707	34.62
31.4808	34.27
31.491	34.15
31.5011	35.41
31.5113	33.29
31.5215	34.29
31.5316	34.08
31.5418	33.73
31.552	34.59
31.5621	34.76
31.5723	33.99
31.5825	34.97
31.5926	33.37
31.6028	34.38
31.613	33.32
31.6231	33.51
31.6333	33.39
31.6435	33.41
31.6536	33.63
31.6638	34.48
31.6739	34.34
31.6841	35.18
31.6943	34.10
31.7044	33.74
31.7146	33.13
31.7248	33.53
31.7349	34.52
31.7451	33.57
31.7553	33.85
31.7654	33.38
31.7756	33.63
31.7858	33.64
31.7959	34.60
31.8061	33.43
31.8162	33.16
31.8264	33.60
31.8366	33.97
31.8467	33.54
31.8569	33.37
31.8671	33.70
31.8772	33.10
31.8874	33.82
31.8976	33.29
31.9077	33.73
31.9179	34.12
31.9281	33.27
31.9382	33.19
31.9484	32.51
31.9586	34.04
31.9687	33.63
31.9789	34.02
31.989	33.10
31.9992	33.35
32.0094	34.05
32.0195	33.31
32.0297	33.58
32.0399	34.24
32.05	33.68
32.0602	32.15
32.0704	34.35
32.0805	33.60
32.0907	32.62
32.1009	33.67
32.111	33.97
32.1212	33.04
32.1313	32.51
32.1415	34.12
32.1517	32.45
32.1618	33.04
32.172	33.67
32.1822	34.24
32.1923	33.73
32.2025	33.40
32.2127	33.45
32.2228	33.57
32.233	33.12
32.2432	33.35
32.2533	33.16
32.2635	34.17
32.2737	33.54
32.2838	32.51
32.294	32.79
32.3041	33.99
32.3143	34.06
32.3245	33.52
32.3346	32.59
32.3448	32.85
32.355	32.77
32.3651	33.60
32.3753	33.57
32.3855	32.65
32.3956	33.23
32.4058	33.12
32.416	32.91
32.4261	33.16
32.4363	33.17
32.4464	33.32
32.4566	32.88
32.4668	32.69
32.4769	33.45
32.4871	32.59
32.4973	33.46
32.5074	33.02
32.5176	32.64
32.5278	33.16
32.5379	33.01
32.5481	32.53
32.5583	33.07
32.5684	33.30
32.5786	32.85
32.5888	33.02
32.5989	33.11
32.6091	32.70
32.6192	32.65
32.6294	33.16
32.6396	32.71
32.6497	32.77
32.6599	32.54
32.6701	31.91
32.6802	33.24
32.6904	32.98
32.7006	33.24
32.7107	33.30
32.7209	32.58
32.7311	32.43
32.7412	32.60
32.7514	32.34
32.7615	32.52
32.7717	32.34
32.7819	32.47
32.792	32.51
32.8022	33.63
32.8124	33.27
32.8225	33.33
32.8327	33.12
32.8429	32.84
32.853	31.78
32.8632	32.31
32.8734	32.52
32.8835	32.50
32.8937	33.46
32.9039	32.70
32.914	32.03
32.9242	32.29
32.9343	32.58
32.9445	32.23
32.9547	32.52
32.9648	33.60
32.975	32.28
32.9852	32.93
32.9953	32.86
33.0055	31.93
33.0157	32.11
33.0258	32.88
33.036	33.30
33.0462	33.52
33.0563	33.18
33.0665	33.12
33.0766	32.29
33.0868	32.90
33.097	32.15
33.1071	34.07
33.1173	33.47
33.1275	33.18
33.1376	32.79
33.1478	32.92
33.158	32.55
33.1681	32.37
33.1783	33.10
33.1885	32.85
33.1986	32.96
33.2088	32.77
33.2189	32.83
33.2291	32.75
33.2393	33.17
33.2494	32.41
33.2596	32.68
33.2698	33.78
33.2799	33.00
33.2901	33.58
33.3003	32.88
33.3104	33.11
33.3206	32.82
33.3308	32.64
33.3409	33.07
33.3511	33.38
33.3613	32.96
33.3714	33.51
33.3816	33.32
33.3917	32.74
33.4019	32.91
33.4121	33.27
33.4222	32.84
33.4324	33.65
33.4426	32.52
33.4527	34.15
33.4629	32.80
33.4731	32.55
33.4832	33.55
33.4934	33.30
33.5036	32.88
33.5137	33.07
33.5239	33.44
33.534	32.51
33.5442	33.28
33.5544	32.62
33.5645	32.37
33.5747	33.06
33.5849	32.57
33.595	32.54
33.6052	32.43
33.6154	32.84
33.6255	32.50
33.6357	31.71
33.6459	31.69
33.656	30.93
33.6662	31.47
33.6764	32.43
33.6865	31.90
33.6967	31.73
33.7068	32.61
33.717	32.48
33.7272	31.65
33.7373	31.43
33.7475	32.19
33.7577	31.40
33.7678	30.95
33.778	31.45
33.7882	30.39
33.7983	31.11
33.8085	30.48
33.8187	30.59
33.8288	30.76
33.839	30.35
33.8491	30.82
33.8593	30.68
33.8695	30.33
33.8796	30.13
33.8898	30.84
33.9	29.72
33.9101	29.88
33.9203	29.71
33.9305	29.56
33.9406	29.52
33.9508	30.07
33.961	30.02
33.9711	29.62
33.9813	29.83
33.9915	29.54
34.0016	29.08
34.0118	29.38
34.0219	29.73
34.0321	29.73
34.0423	29.50
34.0524	28.97
34.0626	29.40
34.0728	28.96
34.0829	28.96
34.0931	28.81
34.1033	28.45
34.1134	28.44
34.1236	28.93
34.1338	28.91
34.1439	28.30
34.1541	28.76
34.1642	28.93
34.1744	28.80
34.1846	28.21
34.1947	28.46
34.2049	29.16
34.2151	28.19
34.2252	28.65
34.2354	27.92
34.2456	28.39
34.2557	28.19
34.2659	29.33
34.2761	28.31
34.2862	27.52
34.2964	27.77
34.3066	28.02
34.3167	28.04
34.3269	26.97
34.337	27.13
34.3472	28.47
34.3574	27.46
34.3675	28.02
34.3777	27.01
34.3879	27.08
34.398	27.96
34.4082	28.09
34.4184	26.88
34.4285	27.32
34.4387	27.58
34.4489	27.93
34.459	27.65
34.4692	26.96
34.4793	27.20
34.4895	27.79
34.4997	27.17
34.5098	27.18
34.52	26.39
34.5302	27.45
34.5403	27.70
34.5505	27.60
34.5607	27.76
34.5708	26.71
34.581	26.45
34.5912	27.49
34.6013	26.55
34.6115	27.40
34.6217	26.84
34.6318	26.60
34.642	27.66
34.6521	27.53
34.6623	27.10
34.6725	26.47
34.6826	27.63
34.6928	26.59
34.703	27.83
34.7131	27.01
34.7233	26.94
34.7335	27.04
34.7436	27.18
34.7538	26.37
34.764	27.29
34.7741	26.43
34.7843	26.35
34.7944	27.36
34.8046	26.95
34.8148	26.82
34.8249	25.87
34.8351	26.73
34.8453	26.20
34.8554	26.77
34.8656	27.15
34.8758	27.27
34.8859	25.98
34.8961	26.74
34.9063	26.16
34.9164	25.91
34.9266	25.88
34.9367	26.91
34.9469	27.01
34.9571	26.74
34.9672	26.18
34.9774	26.49
34.9876	26.36
34.9977	26.65
35.0079	26.93
35.0181	27.29
35.0282	25.96
35.0384	26.05
35.0486	26.10
35.0587	26.08
35.0689	26.05
35.0791	26.18
35.0892	26.27
35.0994	26.35
35.1095	26.31
35.1197	26.03
35.1299	26.47
35.14	26.26
35.1502	26.10
35.1604	26.37
35.1705	26.23
35.1807	25.99
35.1909	25.87
35.201	26.82
35.2112	26.01
35.2214	25.24
35.2315	26.27
35.2417	26.17
35.2518	26.58
35.262	25.67
35.2722	25.62
35.2823	26.27
35.2925	25.73
35.3027	26.38
35.3128	26.02
35.323	25.77
35.3332	25.73
35.3433	25.05
35.3535	25.93
35.3637	26.07
35.3738	26.10
35.384	25.99
35.3942	26.44
35.4043	25.83
35.4145	25.98
35.4246	26.74
35.4348	25.93
35.445	26.43
35.4551	26.13
35.4653	25.90
35.4755	26.46
35.4856	25.46
35.4958	25.26
35.506	25.36
35.5161	25.79
35.5263	25.74
35.5365	26.13
35.5466	25.57
35.5568	25.66
35.5669	25.73
35.5771	25.93
35.5873	25.68
35.5974	26.41
35.6076	25.20
35.6178	25.49
35.6279	25.58
35.6381	25.38
35.6483	25.35
35.6584	25.77
35.6686	25.72
35.6788	26.15
35.6889	25.84
35.6991	25.10
35.7093	24.97
35.7194	25.12
35.7296	25.37
35.7397	25.24
35.7499	25.67
35.7601	25.47
35.7702	25.12
35.7804	25.05
35.7906	25.49
35.8007	25.69
35.8109	25.55
35.8211	25.26
35.8312	25.42
35.8414	26.26
35.8516	25.30
35.8617	25.07
35.8719	25.55
35.882	25.48
35.8922	24.98
35.9024	24.95
35.9125	25.08
35.9227	25.68
35.9329	25.43
35.943	25.46
35.9532	25.05
35.9634	25.64
35.9735	25.13
35.9837	25.30
35.9939	25.68
36.004	25.31
36.0142	25.49
36.0244	25.42
36.0345	25.65
36.0447	25.29
36.0548	25.26
36.065	25.34
36.0752	24.52
36.0853	24.60
36.0955	25.74
36.1057	24.67
36.1158	25.66
36.126	26.08
36.1362	25.57
36.1463	25.39
36.1565	25.57
36.1667	24.81
36.1768	24.91
36.187	25.65
36.1971	25.48
36.2073	25.32
36.2175	25.13
36.2276	25.40
36.2378	25.00
36.248	26.30
36.2581	24.97
36.2683	25.22
36.2785	24.73
36.2886	25.10
36.2988	25.45
36.309	25.09
36.3191	25.26
36.3293	25.52
36.3395	24.85
36.3496	24.96
36.3598	25.34
36.3699	25.37
36.3801	25.16
36.3903	25.27
36.4004	25.07
36.4106	25.48
36.4208	25.10
36.4309	25.00
36.4411	25.15
36.4513	24.90
36.4614	25.52
36.4716	25.18
36.4818	25.29
36.4919	25.54
36.5021	25.20
36.5122	24.71
36.5224	24.66
36.5326	24.92
36.5427	24.60
36.5529	24.88
36.5631	25.40
36.5732	25.87
36.5834	25.02
36.5936	24.71
36.6037	25.44
36.6139	24.32
36.6241	24.57
36.6342	25.45
36.6444	25.18
36.6546	24.38
36.6647	25.42
36.6749	25.80
36.685	25.84
36.6952	25.05
36.7054	25.67
36.7155	25.10
36.7257	25.65
36.7359	26.37
36.746	25.36
36.7562	25.97
36.7664	25.02
36.7765	25.56
36.7867	26.07
36.7969	26.26
36.807	25.65
36.8172	25.21
36.8273	25.34
36.8375	25.28
36.8477	25.57
36.8578	25.53
36.868	25.38
36.8782	25.53
36.8883	24.74
36.8985	25.35
36.9087	25.98
36.9188	25.41
36.929	25.16
36.9392	27.21
36.9493	26.46
36.9595	25.62
36.9696	25.59
36.9798	25.55
36.99	25.54
37.0001	25.51
37.0103	25.99
37.0205	26.39
37.0306	25.89
37.0408	26.14
37.051	26.06
37.0611	26.07
37.0713	26.05
37.0815	25.70
37.0916	25.93
37.1018	26.33
37.112	26.01
37.1221	25.43
37.1323	26.31
37.1424	25.76
37.1526	25.68
37.1628	25.91
37.1729	26.54
37.1831	26.84
37.1933	26.48
37.2034	26.11
37.2136	25.77
37.2238	26.55
37.2339	26.26
37.2441	26.33
37.2543	25.96
37.2644	26.23
37.2746	25.70
37.2847	26.34
37.2949	25.99
37.3051	25.72
37.3152	26.46
37.3254	26.59
37.3356	25.93
37.3457	25.82
37.3559	26.35
37.3661	26.38
37.3762	26.68
37.3864	26.77
37.3966	26.59
37.4067	27.15
37.4169	26.29
37.4271	26.18
37.4372	26.20
37.4474	27.38
37.4575	26.49
37.4677	26.99
37.4779	26.99
37.488	26.49
37.4982	26.51
37.5084	26.59
37.5185	26.31
37.5287	27.13
37.5389	26.66
37.549	27.14
37.5592	27.54
37.5694	26.97
37.5795	27.12
37.5897	27.00
37.5998	27.48
37.61	26.63
37.6202	26.87
37.6303	27.24
37.6405	27.20
37.6507	26.16
37.6608	27.24
37.671	26.87
37.6812	27.40
37.6913	26.80
37.7015	27.40
37.7117	26.48
37.7218	27.68
37.732	28.04
37.7422	27.33
37.7523	27.36
37.7625	26.91
37.7726	27.65
37.7828	27.30
37.793	27.74
37.8031	27.57
37.8133	27.39
37.8235	27.82
37.8336	27.26
37.8438	27.94
37.854	28.38
37.8641	28.81
37.8743	27.87
37.8845	27.46
37.8946	28.55
37.9048	27.54
37.9149	28.26
37.9251	28.84
37.9353	28.18
37.9454	28.94
37.9556	27.45
37.9658	27.95
37.9759	28.43
37.9861	27.51
37.9963	28.53
38.0064	27.43
38.0166	27.97
38.0268	29.25
38.0369	28.30
38.0471	27.80
38.0573	28.18
38.0674	28.98
38.0776	28.37
38.0877	28.53
38.0979	29.52
38.1081	28.05
38.1182	29.31
38.1284	28.79
38.1386	28.88
38.1487	29.06
38.1589	28.76
38.1691	28.61
38.1792	28.82
38.1894	29.19
38.1996	28.99
38.2097	29.20
38.2199	28.84
38.23	29.12
38.2402	29.49
38.2504	28.99
38.2605	28.97
38.2707	29.43
38.2809	28.63
38.291	29.63
38.3012	29.10
38.3114	28.74
38.3215	28.73
38.3317	29.52
38.3419	29.12
38.352	29.34
38.3622	29.58
38.3724	28.57
38.3825	30.38
38.3927	29.42
38.4028	29.57
38.413	29.81
38.4232	29.12
38.4333	29.36
38.4435	29.20
38.4537	29.81
38.4638	29.27
38.474	28.91
38.4842	29.23
38.4943	29.12
38.5045	30.10
38.5147	30.40
38.5248	29.68
38.535	29.59
38.5451	30.17
38.5553	29.69
38.5655	29.20
38.5756	29.79
38.5858	29.58
38.596	29.77
38.6061	29.05
38.6163	29.68
38.6265	29.66
38.6366	29.61
38.6468	30.12
38.657	30.20
38.6671	30.23
38.6773	29.45
38.6875	29.23
38.6976	29.76
38.7078	29.99
38.7179	29.55
38.7281	29.62
38.7383	29.52
38.7484	29.04
38.7586	29.86
38.7688	29.43
38.7789	29.59
38.7891	29.38
38.7993	30.16
38.8094	29.54
38.8196	29.74
38.8298	29.48
38.8399	29.39
38.8501	29.60
38.8602	29.49
38.8704	29.15
38.8806	29.61
38.8907	30.11
38.9009	28.80
38.9111	29.71
38.9212	29.16
38.9314	29.57
38.9416	29.59
38.9517	28.66
38.9619	29.77
38.9721	29.32
38.9822	29.31
38.9924	28.20
39.0025	28.37
39.0127	29.27
39.0229	29.10
39.033	28.67
39.0432	28.37
39.0534	29.38
39.0635	28.66
39.0737	28.15
39.0839	28.60
39.094	29.11
39.1042	28.39
39.1144	28.62
39.1245	28.41
39.1347	29.38
39.1449	28.53
39.155	28.72
39.1652	27.74
39.1753	28.83
39.1855	29.19
39.1957	27.58
39.2058	28.45
39.216	28.23
39.2262	28.46
39.2363	28.30
39.2465	27.87
39.2567	28.52
39.2668	28.62
39.277	27.76
39.2872	28.35
39.2973	27.73
39.3075	28.14
39.3176	27.88
39.3278	28.06
39.338	27.98
39.3481	27.93
39.3583	28.42
39.3685	27.79
39.3786	27.27
39.3888	27.83
39.399	27.47
39.4091	27.18
39.4193	27.78
39.4295	27.55
39.4396	27.22
39.4498	27.52
39.46	27.18
39.4701	27.45
39.4803	27.76
39.4904	27.24
39.5006	27.07
39.5108	27.23
39.5209	27.24
39.5311	26.79
39.5413	27.05
39.5514	27.30
39.5616	26.87
39.5718	26.49
39.5819	26.82
39.5921	25.81
39.6023	26.93
39.6124	27.13
39.6226	27.15
39.6327	26.37
39.6429	27.00
39.6531	27.14
39.6632	26.61
39.6734	26.42
39.6836	27.09
39.6937	26.62
39.7039	26.32
39.7141	27.09
39.7242	27.20
39.7344	27.69
39.7446	26.44
39.7547	26.08
39.7649	26.21
39.7751	26.56
39.7852	26.09
39.7954	26.12
39.8055	26.16
39.8157	26.39
39.8259	26.14
39.836	25.43
39.8462	25.85
39.8564	25.74
39.8665	26.67
39.8767	25.56
39.8869	26.08
39.897	25.78
39.9072	25.83
39.9174	25.64
39.9275	26.06
39.9377	26.04
39.9478	26.11
39.958	25.54
39.9682	26.20
39.9783	25.78
39.9885	25.66
39.9987	26.04
40.0088	25.82
